#meta n_feat=69 n_class=5 win=150 hop=25 replay_n=75564 hops=400
#calib_windows 74
#calib_valid 69
CMEAN,0.456953257,42.0808334,35.4084663,66.1715088,0.396605551,335.878204,59.4908295,130.721161,0.871223569,-0.344807118,0.214627802,-0.194281518,116.046829,75.6038208,61.7309189,50773.9219,0.534649253,0.185937524,0.141952708,0.103299573,0.823883832,55.7997322,20.8514385,49.1830254,0.760144174,691.070496,114.021629,121.619881,1.03070927,-0.219495341,0.158372223,-0.326882929,77.3792496,54.0134697,60.107502,103928.648,0.746231318,0.17153573,0.050099954,0.0131664388,0.364484161,40.5497894,46.9018707,72.3777542,0.308764845,220.233353,46.314743,134.325821,0.653409541,-0.338702768,0.170710877,-0.172213718,155.383209,135.777405,71.1693573,33626.6914,0.311218768,0.26401785,0.197384953,0.195149988,0.459527522,-0.606684983,0.180205792,0.220158517,0.253118187,0.0414066538,-0.0172438323,0.859803498,0.000872988254
CSTD,0.114446752,9.33492088,6.20257711,9.87360859,0.1037734,257.983276,15.5660086,5.60817003,0.146460742,0.257864505,0.109178528,0.143077925,13.5709248,18.7089577,18.4799442,38650.8594,0.160324663,0.107618339,0.0732349232,0.0227900203,0.100613616,7.83440351,7.73178864,13.3451633,0.099281691,364.998596,14.8922539,8.97680092,0.17409189,0.203156218,0.107936949,0.0982106924,20.6610813,20.6231594,18.3076744,55834.9648,0.154331714,0.120439917,0.0445174314,0.0464138202,0.0836203918,6.96950531,6.84312105,12.5206499,0.0758149773,189.328827,11.3722477,5.32113695,0.20382309,0.217728645,0.0978970975,0.0772650167,19.881443,23.2933636,26.7238197,28454.9727,0.121331528,0.12760374,0.0650480837,0.0680657327,0.2311766,0.365302563,0.0904081687,0.144442365,0.335490167,0.0324489102,0.186862871,0.322053105,0.0518708304
H,0,174,0.934166193,-3.06370401,-5.22500038,-2.34681249,1.08495629,0.826537848,1.08495653,-9.04415512,0.454397053,1.55347288,-0.633773446,0.0236073527,-7.07425785,-3.83225894,-3.34042788,2.0403924,-2.09343505,-1.59147012,-1.80155325,-4.01633549,-2.13770509,-3.73929024,0.148550555,-0.987850428,-2.33415866,0.265716165,-2.3341589,-2.51981544,0.81631285,-0.651797473,0.508183181,1.39861703,-1.45591164,-0.914371014,-3.06981921,0.614003539,-1.64155328,-0.917763472,-0.388171375,0.169677183,2.31477809,-4.22166824,-6.70773888,-2.50608039,2.72091818,1.53921735,2.72091603,-11.9008064,1.58847368,1.45289409,-0.106346913,0.212815106,-6.96027946,-5.66131878,-2.66314316,3.36072016,-1.20230591,-1.94871759,-2.9027946,-2.72817254,1.47706759,1.45087492,1.04813766,5.14371729,-0.723554134,8.06359386,3.90762186,-2.39946127,4.65276957,0.0532176979,2.03038056e-07,3.29545728e-05,0.946647942,0.000101213074,0.91438818,0.0121003157,0.00774197141,0.00891192816,0.0568577126,3,0.984375
H,1,199,0.156994075,-0.715129197,-2.00053406,1.60311103,0.22812058,-0.567697823,0.228120774,-0.663524985,-1.17755771,1.97645748,-0.445792586,-0.982232809,-2.37573552,-0.909193933,-0.169760734,-0.583729148,0.43979007,-1.27377343,-1.29751444,-0.730154932,-0.168259621,-1.06310976,0.277886719,-0.538249314,-0.201464236,-0.395356655,-0.201464429,0.376539409,0.361374348,-0.616017282,1.28177631,-0.513492405,-0.0557773337,0.222094014,-0.0826840103,-0.402454466,0.705353439,-0.942381263,-0.198195621,0.428213149,-0.160001233,-1.46343625,-1.30084956,1.32758653,-0.49693653,-0.617773533,-0.49693802,1.06634712,-0.322383672,2.09042549,0.401972353,0.445571721,-3.48632455,-4.15203667,-2.51697206,-0.638925433,0.279797137,-1.49369907,-2.27253771,-1.06943321,0.40648514,0.209594592,0.353023738,2.06031656,0.145890772,1.38456094,-0.233547747,-0.0857647136,-0.349393606,0.000967081811,0.00274213427,0.00918945391,0.930215001,0.0568863712,0.0128594413,0.0263381917,0.00374509557,0.934644461,0.0224127937,3,0.83984375
H,2,224,0.141239673,-0.39275983,-2.00053406,1.50183094,0.226342037,-0.681241095,0.226342335,0.406342715,-1.41463864,1.98199022,-0.208990857,-1.83309996,-1.25270784,-0.909193933,-0.169760734,-0.696972191,1.5863018,-1.27211583,-1.2433722,-0.261714578,0.164954558,-0.990200877,-0.110121809,-0.238515273,0.152279228,-0.508764923,0.15227893,0.487937659,0.311625957,-0.513487816,1.49480379,-0.964662611,-0.10356269,0.222094014,-0.0826840103,-0.51417321,0.826455772,-0.911471963,-0.487136841,0.389282942,-1.20039821,-1.02922201,1.32952917,1.48732257,-1.24368,-0.899704337,-1.24368131,1.44220662,-1.0221802,1.50524378,0.0982146561,-1.19987118,0.294123292,-1.30117118,-0.470576704,-0.920658648,1.17838347,-0.857535303,-1.35944927,0.815606773,1.20278096,0.0877503753,1.25089347,-0.165841311,0.983259678,-0.520519614,-0.019639032,0.924748838,-0.106327966,0.0113528781,0.0597075112,0.00383426109,0.91927278,0.00583243836,0.00760888821,0.0210739207,0.00207706611,0.955728292,0.0135118859,3,0.98828125
H,3,249,0.243210256,-0.334288001,-1.67808735,1.80567122,0.331307858,-0.653175771,0.331307977,0.406342715,-1.60863268,2.36824942,-1.07186055,-1.69385481,-1.35956323,-0.700403571,-0.169760734,-0.669012129,1.66256249,-1.24169409,-1.35713005,-0.657465577,0.118459754,-0.838255763,-0.110121809,0.0612187833,0.0917414427,-0.530239582,0.0917412415,0.376539409,0.112793267,-0.165651172,1.19576466,-1.09079468,-0.127986923,0.222094014,-0.0826840103,-0.535086393,0.818086982,-0.914275944,-0.470660001,0.389627665,-1.27687883,-0.928253412,1.4756614,1.48732257,-1.29070997,-0.91346705,-1.2907114,1.63013637,-1.06123233,1.29003382,0.289624006,-1.71700823,0.607561946,-0.294983357,-0.470576704,-0.9342857,0.663056135,-0.551372111,-1.34041071,1.16169357,1.18825722,0.169733688,1.29736578,-0.0619072057,1.12895775,-0.462828398,-0.0982670039,0.983532667,-0.164686471,0.0115255583,0.0770225227,0.00396706024,0.901785672,0.00569915352,0.00792277604,0.0255387947,0.00200107857,0.950232744,0.0143045764,3,0.984375
H,4,274,0.28856498,-0.426819831,-1.51686406,0.894150436,0.365080416,-0.651655912,0.365080982,0.228031442,-1.10532689,1.88997114,-0.846360803,-1.39378119,-1.53797662,-0.700403571,-0.169760734,-0.667396247,1.57284653,-1.10463262,-1.28428972,-1.10587704,0.119315788,-0.980408013,-0.110121809,-0.388382316,0.119066775,-0.555388212,0.11906714,-0.403248399,0.220324919,-0.400271803,1.40866446,-0.96194005,-0.0889531225,0.222094014,-0.0826840103,-0.559541047,0.858006895,-1.02529478,-0.369213223,0.453611016,-1.40007997,-1.11587322,0.59886843,1.7269268,-1.42829549,-0.93732059,-1.42829657,1.06634712,-1.40328133,1.72208333,-0.307624191,-1.75292373,0.963498056,-0.294983357,-0.470576704,-0.957931638,0.483488888,-0.436599046,-1.36657977,1.29736984,1.20695722,0.198606074,1.35252607,0.106778115,1.2823056,-0.395952642,0.068811506,1.11052918,-0.0343148708,0.00657224515,0.168951213,0.00194743962,0.818149209,0.00437992997,0.00727759814,0.0351231955,0.00159734802,0.942450762,0.013551062,3,0.9921875
H,5,299,0.30832386,-0.289617866,-1.35564077,0.489030033,0.310110897,-0.66495955,0.310111254,1.1195879,-1.01239645,1.85782695,-0.745513737,-1.59068763,-1.65245533,-0.700403571,-0.169760734,-0.680419087,1.69493997,-1.14402175,-1.38099372,-1.26428258,0.0841786861,-0.915804982,-0.110121809,0.136152297,0.128927663,-0.605538368,0.128927499,-0.626044929,0.1377469,-0.218548939,1.16915298,-0.943623006,-0.110119708,0.222094014,-0.0826840103,-0.608245075,0.847735643,-1.0329777,-0.295591891,0.398495555,-1.3125217,-1.2119031,-0.424056619,1.00811422,-1.36123478,-0.93079716,-1.36123633,0.502557814,-1.17326975,1.54298711,-0.374675006,-0.938600361,0.594937503,-0.798077285,-0.324405611,-0.951403856,0.900359213,-0.713391662,-1.14595544,0.826975465,1.1950233,0.222812936,1.34124899,-0.066367574,1.20910144,-0.462366998,-0.0577091835,1.00681281,-0.131394669,0.00646252045,0.122738361,0.00177229336,0.863689661,0.00533719361,0.00693360344,0.0305039361,0.00156234985,0.947198927,0.0138011537,3,0.98828125
H,6,324,0.298248351,-0.296149284,-0.71074754,0.489030033,0.251923472,-0.701356709,0.25192377,0.94127661,-0.569033027,1.40165329,-0.685693741,-1.04069412,-1.68105376,-0.700403571,-0.169760734,-0.716763496,1.65364504,-1.19823158,-1.15946746,-1.4294529,0.0912266001,-0.844160616,-0.110121809,0.0612187833,0.157818735,-0.671543717,0.157818496,-0.626044929,0.0106286779,-0.0655487254,0.778514922,-0.4894104,-0.0512734205,0.222094014,-0.0826840103,-0.672510386,0.830226362,-1.09760642,-0.163343906,0.47169593,-1.31362617,-1.14344001,0.745000601,1.16785038,-1.38673437,-0.94320631,-1.38673556,0.878417373,-1.12345183,1.73579133,0.0229935236,-1.50957298,0.293174654,-1.30117118,-0.470576704,-0.96376425,1.1170125,-0.699969471,-1.36790633,0.67227608,1.02981663,0.214061573,1.16344941,0.00665651355,1.20319164,-0.423919201,-0.213226497,1.0105828,-0.250295371,0.00644407934,0.244875625,0.0014086006,0.737067819,0.0102039175,0.0073959888,0.0745955035,0.00145789981,0.897549033,0.0190015957,3,0.9765625
H,7,349,0.226717353,-0.0837131888,-0.549524248,0.69159025,0.190713972,-0.744557798,0.190714166,1.29789913,-0.63002187,1.31508553,-1.13722312,-0.44849667,-1.32452393,-0.700403571,-0.169760734,-0.759841681,1.50742018,-1.19330096,-0.855485618,-1.36150074,0.115309305,-0.456033468,-0.110121809,0.360952854,0.101421624,-0.714081645,0.101421781,-0.29185015,-0.0872445852,0.0259964671,0.674358189,-0.780578315,0.0514037721,0.411504865,0.130682796,-0.713811159,0.62949419,-0.809435785,-0.286979377,0.441044092,-1.22268426,-0.770566046,1.03726494,0.848378122,-1.33216262,-0.939281046,-1.33216393,0.502557814,-1.35026586,1.65414751,-0.310687929,-1.2402606,0.880084276,0.0404125936,-0.470576704,-0.959849536,0.757118285,-0.715045452,-1.10845268,1.02497172,1.02215052,0.160092577,1.11194682,-0.356662691,1.06537032,-0.617906749,-0.364150167,0.928227961,-0.37709111,0.00768675888,0.242320374,0.00301865581,0.729834795,0.0171394106,0.00920972042,0.0863018185,0.00217869761,0.877862871,0.0244469736,3,0.9765625
H,8,374,0.0273540746,-0.261729687,-0.71074754,0.489030033,-0.0302057043,-0.835534692,-0.0302053466,1.29789913,-0.494845867,1.08110678,-1.58798671,0.240703166,-1.04674518,-0.700403571,-0.169760734,-0.85007447,1.28094137,-1.03461027,-0.597694755,-1.4007076,0.0897058845,-0.524850309,-0.368794173,0.510819852,0.00868539233,-0.813536525,0.0086846156,-0.29185015,-0.153159916,0.294242829,-0.170353636,-0.133992076,0.0495371409,0.411504865,-0.0826840103,-0.809320092,0.715182126,-0.952798963,-0.186461031,0.441636592,-0.680909693,-0.412402958,0.0143398419,0.44903785,-0.777608156,-0.879203796,-0.777609348,0.878417373,-0.565586627,0.886710763,-0.745481908,-0.277553797,-0.0193814002,-0.294983357,-0.470576704,-0.900419056,0.70966804,-0.433715254,-0.321847081,0.0939072818,1.14171374,0.0360488892,1.07326496,-0.126372039,0.446108967,-0.395627648,-0.341526508,0.423831105,-0.417147726,0.0109892804,0.100744061,0.00488992222,0.791786432,0.09159033,0.0183816198,0.0704654977,0.0045085256,0.844886899,0.0617575161,3,0.88671875
H,9,399,0.0451180115,-0.0241421107,-0.388300896,0.489030033,0.0104610566,-0.871930122,0.0104613714,0.94127661,-0.758639634,0.95091635,-0.662485659,-0.192777872,-0.554049134,-0.700403571,-0.169760734,-0.886340857,1.14021802,-1.04025757,-0.577190042,-0.30296734,0.046423126,-0.318615019,-0.110121809,0.735620439,-0.0914448649,-0.916769028,-0.0914451256,-0.180451885,-0.198496819,0.348297209,-0.504534662,0.211000532,0.117342882,0.411504865,-0.0826840103,-0.910256863,0.618063152,-0.86220485,-0.111814782,0.483587235,-0.578127086,-0.171063825,-0.424056619,0.768510103,-0.672353029,-0.889004469,-0.672354579,0.878417373,-0.662256896,1.02256656,-0.316030264,-0.815245211,0.0175601486,-0.630379319,-0.470576704,-0.910129488,0.983023345,-0.680388927,-0.45733273,0.239804864,1.22263861,0.0624687523,1.14994168,-0.43792811,0.377094388,-0.569634974,-0.423171908,0.321969151,-0.503226638,0.0104906568,0.0687572286,0.0051376503,0.798937738,0.116676763,0.0156278759,0.0422592647,0.00444408786,0.88735795,0.0503108911,3,0.86328125
H,10,424,-0.12998946,0.000437253417,-0.227077603,0.489030033,-0.182792783,-0.938026428,-0.182792425,0.762965322,-0.944763005,0.80784899,-0.548181653,0.00173144671,0.0201111082,-0.700403571,-0.169760734,-0.951971292,0.764453053,-0.877394319,-0.316317499,0.175848916,0.0815122426,0.181678131,0.0192143731,1.41002202,-0.101474456,-0.98265332,-0.10147506,0.487937659,-0.521503627,0.349813759,0.364315122,-0.412827373,0.308485389,0.222094014,-0.0826840103,-0.974118054,0.458608091,-0.807882011,-0.0708167329,0.751557946,-0.352989793,0.53110975,1.03726494,0.848378122,-0.478414387,-0.878504992,-0.478415757,1.25427687,-0.725322127,0.575861037,0.453670859,-0.912388682,0.561190248,0.208110571,-0.470576704,-0.899736166,0.510701656,-0.678411067,-0.103878468,0.788894892,0.956534147,-0.070536457,0.776148498,-0.0944571048,0.0725276545,-0.333623409,-0.51953876,0.155561537,-0.631147563,0.0131920939,0.0677149221,0.0113816895,0.691415608,0.216295645,0.0221468788,0.0510994382,0.00635544397,0.833878398,0.086519897,3,0.6484375
H,11,449,-0.312180191,0.110522136,0.901485562,1.09671056,-0.375927746,-0.998834789,-0.375927597,0.94127661,-1.55694389,1.13485515,-1.05530262,0.164906323,0.725087166,-0.700403571,-0.169760734,-1.01250458,0.295651555,-0.436291754,-0.19111678,1.05827117,0.104817115,0.707369328,0.277886719,1.63482261,-0.150456533,-1.05343902,-0.150456652,0.933530688,-1.13367045,1.15963709,-0.299480528,-0.601053476,0.468599409,0.411504865,-0.0826840103,-1.04282498,0.314699978,-0.608566105,-0.25297761,0.901310384,-0.108854234,1.12687755,1.62179351,1.24771845,-0.191184625,-0.869249821,-0.191186234,2.00599599,-0.822033644,0.553706646,0.704399526,-0.844915986,0.775813222,0.208110571,-0.470576704,-0.890587509,0.504003644,-0.844720185,-0.0463223271,1.06692922,0.711452007,-0.210499182,0.43269375,0.183130667,-0.247825161,-0.138375357,-0.252289057,-0.0193982981,-0.384926707,0.0152702155,0.0878601596,0.0259984732,0.544555426,0.32631579,0.0300142691,0.0688061789,0.0100020831,0.752049148,0.139128312,3,0.8046875
H,12,474,-0.196215779,0.549034178,1.38515544,1.60311103,-0.29222092,-0.991029501,-0.292220682,0.94127661,-2.33354664,1.1327045,-0.381251842,-0.0114472322,2.16669607,-0.700403571,-0.169760734,-1.00466681,-0.21375443,-0.693728209,0.0950419754,3.98826575,-0.0241869688,0.708074391,0.407222897,2.08442378,-0.372489065,-1.10895526,-0.372489661,1.15632725,-1.3346554,1.36977804,-0.507948637,-0.600824356,0.579145253,0.411504865,-0.0826840103,-1.09627867,0.199526384,-0.488595039,-0.239824623,0.964368403,0.0583915375,1.34297931,0.745000601,1.32758653,0.0287861861,-0.857019901,0.0287850406,1.81806612,-0.800110638,0.67498076,0.833817124,-1.03018761,0.635510862,0.0404125936,-0.470576704,-0.878482699,0.805504918,-1.06854665,-0.0751127675,0.989168108,0.354323745,-0.0826640278,0.144271582,-0.14875941,-0.270409107,-0.293449759,-0.729062915,-0.187927067,-0.914597631,0.0162561368,0.0744945854,0.0273440685,0.514028788,0.36787644,0.0411797538,0.0834454671,0.0139862848,0.691821218,0.169567302,3,0.76171875
H,13,499,-0.100092031,0.816423655,1.38515544,1.70439112,-0.19020766,-1.01036775,-0.190207615,0.584654033,-2.47792006,1.05251884,0.132998824,-0.276785791,2.59842062,0.134757861,-0.169760734,-1.02391803,-0.417722285,-0.637662172,0.0614432693,5.34166813,-0.155146599,1.02842724,0.665895283,2.45909119,-0.448956788,-1.2150743,-0.448956996,0.822132468,-1.75956035,1.7430501,-0.334874332,-0.863243163,0.771189153,0.411504865,-0.0826840103,-1.20110273,0.221379772,-0.759274065,-0.107848018,1.24005306,0.245341599,1.57990301,0.306604147,1.48732257,0.23848705,-0.866479754,0.2384855,1.06634712,-0.754059851,0.576607466,1.36700714,-1.52555513,0.696777165,-0.127285391,-0.470576704,-0.887846112,0.807233632,-1.10102439,-0.188445106,1.09351039,0.121465005,0.0300483294,-0.0511673503,-0.308919728,-0.319436967,-0.34821108,-0.783612907,-0.366849214,-0.99873656,0.0154391127,0.0509442426,0.0198228154,0.554851532,0.3589423,0.0358880833,0.0686932281,0.0107595846,0.729443848,0.155215263,3,0.75
H,14,524,0.0504729487,1.36154914,2.83616519,1.80567122,-0.0653245971,-0.993098319,-0.0653245077,0.762965322,-2.69675803,1.03828633,0.175256833,-0.359104127,3.19398427,0.969919324,-0.169760734,-1.00678921,-0.37977618,-0.68234235,-0.0621564351,6.43185568,-0.114295691,1.54009664,1.18323994,2.38415766,-0.423826367,-1.220523,-0.423826337,1.15632725,-1.82652688,1.56446779,0.322754562,-1.24364293,0.961459458,0.411504865,-0.0826840103,-1.20660949,0.210978329,-0.734596074,-0.166446909,1.52840328,-0.11530187,1.14948547,0.745000601,1.40745461,-0.148337901,-0.915763438,-0.148339242,0.126698315,-1.08075297,0.865700841,1.69791162,-1.65458858,1.15008378,0.208110571,-0.470576704,-0.936635792,1.00015211,-1.53735638,-0.317917436,1.73943996,-0.174147233,0.120050713,-0.249940604,-0.0743530393,0.0368137434,-0.216367304,-0.719768405,-0.0978235975,-0.860124469,0.011616488,0.105083399,0.018038176,0.540848136,0.324413776,0.0219547674,0.0866079181,0.00505743362,0.79785794,0.0885219127,3,0.6640625
H,15,549,-0.00920187496,1.25647223,2.83616519,2.10951161,-0.161670506,-0.999233603,-0.161670431,1.29789913,-2.75571036,1.21247602,-0.026795974,-0.282627732,2.96045089,0.343548238,-0.169760734,-1.01288891,-0.425371915,-0.553375661,-0.162103072,6.42257071,-0.166341394,1.24067533,1.18323994,2.00949025,-0.461488068,-1.22272718,-0.461488545,1.49052203,-1.80208468,1.69030142,0.0692730322,-1.28984797,0.842695296,0.411504865,-0.0826840103,-1.20875072,0.279587597,-0.741129458,-0.297494322,1.40483618,0.126440093,1.43839455,0.891132772,1.32758653,0.0662695542,-0.884061813,0.0662680194,-0.249161214,-1.25523877,1.05033839,0.408571213,-0.973570287,1.2257905,0.711204529,-0.470576704,-0.905233443,0.724696994,-1.36367619,0.0774885491,1.53450036,-0.463411659,0.097048834,-0.558920562,-0.0582173578,-0.172651112,-0.160249114,-0.705871403,-0.289937675,-0.887264073,0.0157857593,0.130061194,0.0293846056,0.468565553,0.356202871,0.0335909165,0.120291822,0.00799270254,0.691361964,0.146762565,3,0.828125
H,16,574,0.0663622394,1.13698971,2.51371861,1.90695131,-0.0708919913,-0.982712567,-0.0708916709,0.584654033,-2.61916471,1.30531299,0.166965276,-0.335378796,2.38294792,-0.700403571,-0.169760734,-0.996450901,-0.0058093504,-0.999906957,-0.343825102,5.80665064,-0.210433975,1.18300021,0.92456764,2.00949025,-0.478977114,-1.21971035,-0.478977144,1.26772547,-1.7086798,1.47400689,0.0468839332,-0.731720924,0.901746154,0.411504865,-0.0826840103,-1.20580065,0.195283085,-0.742317438,-0.185261711,1.5413332,0.113373391,1.32267785,0.306604147,1.24771845,0.116044536,-0.881331801,0.116043501,-0.249161214,-1.22658074,1.25729764,0.40134415,-1.3059237,0.984686077,-0.294983357,-0.470576704,-0.902577281,0.927853525,-1.36105907,-0.102331728,1.38082552,-0.319920212,0.163577303,-0.402924776,0.170622826,-0.10794273,0.0345697887,-0.333074629,-0.297992021,-0.47681269,0.0142554753,0.129601136,0.0186470523,0.484101534,0.353394866,0.0221446045,0.0811007321,0.0052104108,0.805842996,0.0857012346,3,0.62109375
H,17,599,0.15455462,1.22539008,1.54637873,1.50183094,0.045163814,-0.969058454,0.045163922,0.228031442,-2.39153743,1.00764596,0.535721838,-0.481860012,2.50792193,-0.700403571,-0.169760734,-0.982895255,-0.0582344085,-0.914351344,-0.143121496,5.76993418,-0.226333112,0.849403262,1.05390382,1.63482261,-0.497898638,-1.22306633,-0.497898638,1.26772547,-1.50217211,1.35341823,0.512674749,-1.14895201,0.63944751,0.222094014,-0.0826840103,-1.20905912,0.513835132,-1.02966905,-0.300341904,1.35837674,0.00142453145,1.29435515,0.452736288,1.32758653,-0.0658670217,-0.895552754,-0.0658685118,-0.437090963,-1.49068773,1.47655118,-0.0931890532,-0.983333707,1.32717955,0.711204529,-0.470576704,-0.916651905,0.747335196,-1.36517692,-0.0344347246,1.57687545,-0.354207695,0.227878228,-0.404946804,-0.0376906358,0.031690523,-0.130946457,-0.580240607,-0.225469217,-0.724481523,0.0175475441,0.124377288,0.0164215118,0.576119781,0.265533835,0.0249668192,0.0818072855,0.00556338066,0.814963222,0.0726993158,3,0.80859375
H,18,624,0.0173751563,0.654587984,0.74026227,1.19799066,-0.0435819924,-0.980376482,-0.0435817763,0.584654033,-1.84151983,1.24240994,0.372685283,-0.843676269,0.86113745,-0.700403571,-0.169760734,-0.994163692,0.692444026,-1.11871469,-0.635581434,3.19411373,-0.057291504,1.11107779,1.18323994,1.48495555,-0.417672068,-1.17107213,-0.417672008,1.04492903,-1.6405828,1.65192115,-0.428409189,-0.535445094,0.721978426,0.222094014,-0.0826840103,-1.15850806,0.422094911,-0.904724002,-0.27764377,1.42042029,-0.215230063,1.0866704,0.891132772,1.48732257,-0.271318942,-0.913472772,-0.271320641,-0.0612314492,-1.64810395,1.44969761,-0.318454117,-0.568039715,1.63595891,1.04660046,-0.470576704,-0.93441081,0.342276812,-1.2459017,0.29786706,1.74534953,-0.151926786,0.0782910436,-0.230671048,0.513814867,0.0833443031,0.166540071,-0.0397444032,-0.00198421115,-0.151651606,0.00776661793,0.0803546384,0.0190183409,0.722147644,0.170712799,0.0140250027,0.047353778,0.00329333241,0.898430049,0.0368978642,3,0.78125
H,19,649,-0.0586743541,0.358925402,1.06270885,0.995430529,-0.136126995,-0.986030579,-0.13612698,0.584654033,-1.66793954,1.3397845,0.160275489,-0.949182749,0.341850042,-0.700403571,-0.169760734,-0.999773383,0.730460942,-0.88511014,-0.803863883,2.43240547,-0.0016474959,0.999132395,0.795231462,1.63482261,-0.332911015,-1.14593267,-0.332911462,1.04492903,-1.30098283,1.41148925,-0.916983247,0.0391244888,0.578336179,0.411504865,-0.0826840103,-1.13410234,0.421393543,-0.811794639,-0.200212687,1.18517077,-0.237356812,0.867708743,1.32952917,1.24771845,-0.307538509,-0.910996616,-0.307539672,0.502557814,-1.51427889,1.54997098,-0.614356399,-0.568829477,1.28885961,0.543506503,-0.470576704,-0.931957424,0.656287849,-1.20616829,-0.0503016636,1.42472696,-0.01855666,0.00720863603,-0.125786409,0.729685068,0.0422331281,0.280728936,0.0211910103,0.0358177796,-0.0895319656,0.00829466991,0.0840365365,0.0130289756,0.679120004,0.215519786,0.0146378232,0.0515536927,0.00347455684,0.884128928,0.0462050289,3,0.8125
H,20,674,-0.116530515,0.107223526,0.256592333,1.19799066,-0.175369591,-0.98329401,-0.175369367,0.406342715,-1.39781988,1.24551725,0.458719283,-1.02096677,-0.136651859,-0.909193933,-0.169760734,-0.997084975,1.10079384,-1.27775264,-0.779282928,1.81792235,0.0436091758,1.05815494,0.536559105,1.85962319,-0.210063174,-1.10820973,-0.210063487,1.04492903,-1.59077036,1.66714263,-0.921744287,0.0013224479,0.707673848,0.222094014,-0.0826840103,-1.09743822,0.405306309,-0.924411654,-0.0336958207,1.31656754,-0.265273631,0.881314516,1.91405785,1.64705873,-0.309993774,-0.904711187,-0.309995085,0.878417373,-1.526407,1.51612008,-0.17170909,-0.766997814,1.3557862,-0.127285391,-0.324405611,-0.925734162,0.490353674,-0.975286305,-0.532385468,1.72364199,0.153347313,-0.0484393239,0.0184324216,0.218680352,0.0183307864,-0.0979671776,-0.426324368,0.0740391538,-0.54651612,0.00836508721,0.0551299304,0.0189749133,0.798134863,0.119395196,0.00933069456,0.0289827902,0.00244045723,0.933731794,0.0255142152,3,0.68359375
H,21,699,-0.0961971804,0.00975565519,-0.871970832,0.894150436,-0.162573427,-0.959469795,-0.162573263,-0.12859112,-1.01501977,0.99961251,1.09717131,-1.55169082,-0.44282046,-0.700403571,-0.169760734,-0.973383904,1.11145306,-1.06505179,-0.909626961,1.11028063,0.0472886413,0.975519359,0.665895283,1.55988908,-0.182601556,-1.05751359,-0.182601318,0.710734189,-1.3893292,1.52837098,-1.32527506,0.304428846,0.665350676,0.411504865,-0.0826840103,-1.04810894,0.318260074,-0.760939956,0.0630745962,1.10716856,-0.312421113,0.465607256,1.32952917,1.24771845,-0.338726103,-0.894565105,-0.338727474,0.690487623,-1.12500525,1.01877916,0.0951320454,-0.57840699,0.932895184,0.0404125936,-0.324405611,-0.915682077,0.685515285,-1.17073405,0.209343091,0.966938257,0.333092839,-0.0353402644,0.199729219,0.0398859493,0.0684555843,-0.225517243,-0.806072474,0.111397333,-0.924215734,0.00921342429,0.0380098559,0.0193605069,0.824271441,0.109144807,0.0118114362,0.0301415455,0.00337282266,0.925115943,0.029558247,3,0.55859375
H,22,724,-0.0843722597,0.134123608,-1.83931065,1.50183094,-0.139518946,-0.950853109,-0.139518693,0.584654033,-1.26778758,1.26027656,0.347756147,-1.16151631,-0.355122715,-0.909193933,-0.169760734,-0.964819074,1.08594894,-1.0943203,-0.915384173,1.17414701,0.0351904184,0.824498951,1.18323994,1.33508849,-0.282456249,-1.04421115,-0.282455951,0.599335909,-1.41078234,1.59272039,-1.3704344,0.315006584,0.637219012,0.222094014,-0.0826840103,-1.03516889,0.437570781,-0.890059471,0.0794209614,1.07120311,-0.298183262,0.144433483,1.03726494,0.9282462,-0.331887066,-0.887593806,-0.331888199,-0.0612314492,-0.838008642,0.818619072,0.144465789,-0.197335184,0.538101137,-0.294983357,-0.324405611,-0.908713281,0.819757164,-1.05687106,0.1207726,0.675637186,0.537062168,-0.0230212957,0.396183431,-0.563251793,0.067017749,-0.626387179,-1.15913224,0.0959256291,-1.28340983,0.0119213378,0.0200352743,0.0222880915,0.874154806,0.0716005117,0.0131813567,0.0247888397,0.00429459522,0.931169569,0.0265656207,3,0.74609375
H,23,749,0.0206408743,0.239603847,-2.32298064,1.70439112,-0.0454225689,-0.914408147,-0.0454224683,0.762965322,-1.55924571,1.79333651,-0.778645158,-0.911830366,-0.542718232,-0.909193933,-0.169760734,-0.928632557,1.25847948,-1.20365119,-0.912468255,0.695715547,-0.0489154011,0.940825641,0.92456764,1.33508849,-0.335449934,-1.02256429,-0.335450441,0.376539409,-1.66289508,1.98095334,-1.46315479,-0.136541069,0.653447807,0.411504865,-0.0826840103,-1.01408994,0.339171112,-0.697096229,-0.132066488,1.08029544,-0.245070383,0.299362242,0.891132772,0.768510103,-0.237622634,-0.86713028,-0.237623766,-0.0612314492,-0.83437562,0.554549396,0.810942948,-0.247925073,0.793679595,0.0404125936,-0.324405611,-0.888371885,0.671295702,-1.06711864,0.00255583622,1.06147277,0.66056174,0.0777010322,0.554080606,-0.566208959,0.107314244,-0.602285028,-1.10011566,0.0236548856,-1.22695959,0.0116988933,0.0150208091,0.0351165086,0.893819809,0.0443440452,0.0114697814,0.0203360878,0.00398609461,0.942887485,0.0213205032,3,0.7109375
H,24,774,0.0874528363,0.317586958,-1.35564077,1.70439112,0.0336077176,-0.893844187,0.0336078405,0.762965322,-1.49984527,1.71791697,-0.945181489,-0.723429799,-0.490438253,-0.700403571,-0.169760734,-0.908202827,1.17819619,-1.20694458,-0.831351161,0.827463865,-0.0647547022,0.599510074,0.665895283,1.18522155,-0.185032412,-1.00957155,-0.18503271,0.487937659,-1.23343229,1.13585186,0.044091925,-0.633160591,0.55698204,0.222094014,-0.0826840103,-1.00134873,0.478469402,-0.8866359,-0.101338677,1.07613564,-0.323607445,0.195621923,1.03726494,0.369169801,-0.346027404,-0.872942746,-0.346028656,-0.249161214,-0.91078639,0.624315262,0.732589602,0.0898227468,0.835998893,0.208110571,-0.470576704,-0.894160092,0.618127704,-1.11211812,-0.0233154483,1.14885628,0.828726768,0.128229365,0.755571425,-0.97306931,0.213983476,-0.889508784,-1.40693796,0.0774608627,-1.50639224,0.0199466422,0.0222695656,0.0272081904,0.886013091,0.0445625819,0.0116872229,0.0217594597,0.00389176956,0.940493882,0.0221676733,3,0.625
H,25,799,0.189273417,0.443050504,-2.00053406,1.80567122,0.164364323,-0.82933718,0.164364442,0.228031442,-1.51082027,1.62217629,-0.272875071,-1.0376333,-0.430335999,-0.909193933,-0.169760734,-0.844048142,1.26969588,-1.25995862,-1.04192102,1.36799204,-0.113872118,0.417478472,0.665895283,1.0353545,-0.23322621,-0.930838108,-0.233226389,0.822132468,-1.10445738,0.776598215,1.09198725,-1.39882934,0.550125539,0.222094014,-0.0826840103,-0.924780071,0.462085158,-0.842479527,-0.266016901,1.22751057,-0.376487255,0.317957073,0.452736288,0.44903785,-0.379473716,-0.851549745,-0.379475296,-0.249161214,-0.986933351,0.559022844,0.855061114,0.0716702044,1.06537986,0.543506503,-0.470576704,-0.872949123,0.448890567,-1.06038141,0.0788004845,1.40033853,0.843492508,0.212305427,0.821815133,-1.09078372,0.326773524,-0.968567967,-1.67094254,0.0995901525,-1.73528588,0.0252771024,0.0211064145,0.0357814133,0.890005231,0.0278298371,0.0117532397,0.0207387097,0.00424786424,0.944056332,0.0192038957,3,0.5546875
H,26,824,0.19292818,0.327669531,-2.16175723,2.0082314,0.13603279,-0.806181788,0.136032879,0.406342715,-1.48879039,1.70424974,-0.679554939,-0.846004128,-0.56254828,-0.909193933,-0.169760734,-0.821044207,1.25355315,-1.18558347,-0.948836148,0.789248526,-0.0572968386,0.355335802,0.92456764,0.885487437,-0.178083256,-0.871216059,-0.178083286,0.933530688,-0.950864375,0.617510259,1.1132319,-1.26819539,0.4890607,0.222094014,-0.0826840103,-0.866723001,0.5327757,-0.896766067,-0.307943732,1.12202501,-0.554307401,0.221646354,0.59886843,0.44903785,-0.558183134,-0.865310729,-0.558184505,0.314628065,-0.976282656,0.37633124,1.3528012,0.0184958354,1.2385999,0.878902495,-0.470576704,-0.88662678,0.415504187,-1.17311859,0.0870562717,1.65229237,0.98757273,0.195583612,0.988401294,-1.11981964,0.465537012,-1.00173855,-1.42466295,0.263110369,-1.4391396,0.021346746,0.0306501556,0.0316082016,0.88634485,0.0300500635,0.0117905689,0.0237968639,0.00432299264,0.939406931,0.020682564,3,0.5
H,27,849,0.20701392,0.271761984,-1.83931065,1.40055084,0.157740071,-0.804746687,0.15774031,0.762965322,-1.13065314,1.37818158,-0.6715976,-0.522720277,-0.687131107,-0.700403571,-0.169760734,-0.819658697,1.34444833,-1.29439449,-0.75314343,0.107970878,-0.00725111458,0.180755436,0.665895283,1.0353545,-0.112313941,-0.862557828,-0.112314433,0.933530688,-1.12196159,0.989927888,1.23190808,-1.81272984,0.339927137,0.222094014,-0.0826840103,-0.858388841,0.695815563,-1.00436521,-0.514017105,1.06781995,-0.743416905,0.169053987,1.4756614,0.528905928,-0.717388868,-0.895215333,-0.717390299,0.502557814,-1.55402875,0.916804492,1.08442891,1.13053524,1.69039381,1.71739233,-0.470576704,-0.916248858,0.428048372,-1.40195644,-0.0138604352,2.0816741,1.04623199,0.187984034,1.0761925,-1.01874042,0.627522171,-0.949116588,-1.22389853,0.440474719,-1.19677591,0.0153937293,0.0690170676,0.0271924548,0.867255151,0.0211415887,0.0102201458,0.0299113262,0.00347171072,0.936500609,0.0198962241,2,0.44140625
H,28,874,0.166014448,0.0548180938,-1.83931065,0.792870343,0.129694864,-0.792674601,0.129695222,0.94127661,-0.914162397,1.29762733,-0.332179993,-0.843801618,-0.993751168,-0.700403571,-0.169760734,-0.807618678,1.33883595,-1.10877764,-0.934716702,-0.199934959,0.0264624208,-0.165225729,0.148550555,0.810553908,0.0367815867,-0.807740331,0.0367815383,0.710734189,-0.668707967,0.325218827,1.53367519,-1.47959971,0.312823147,0.222094014,-0.0826840103,-0.804914653,0.658815384,-0.966545105,-0.305496544,0.912292898,-0.76538223,0.103376329,1.91405785,0.768510103,-0.755344331,-0.886622846,-0.755345583,1.06634712,-1.42438602,0.873440385,0.564383805,1.06520653,1.53314674,1.21429849,-0.470576704,-0.907790542,0.45252955,-1.28339446,-0.065554671,1.93726981,1.04415727,0.14987126,1.05666518,-1.16920114,0.616445065,-1.05006111,-1.26429033,0.47216621,-1.2305789,0.0215982553,0.057140965,0.0183399599,0.882934988,0.0199858397,0.0109254774,0.028158823,0.00379115809,0.93748349,0.019641025,3,0.6328125
H,29,899,0.191965729,-0.243916705,-2.00053406,0.286469847,0.164854825,-0.767299116,0.164855316,0.406342715,-0.471387088,0.987534344,0.368609309,-1.1698221,-1.40112805,-0.700403571,-0.169760734,-0.78228575,1.56742418,-1.29803169,-1.09362066,-0.532488525,0.0548940189,-0.374282181,0.148550555,0.66068691,0.0523651019,-0.759753525,0.0523653813,0.487937659,-0.565539181,0.402017862,0.948496103,-1.11785781,0.22339958,0.411504865,-0.0826840103,-0.75818938,0.678215563,-0.922365606,-0.350211143,0.762784421,-0.919380605,-0.243061632,2.06018996,0.688642025,-0.898453295,-0.900436759,-0.898454368,0.878417373,-1.16114843,0.640081763,0.402750134,1.58821082,1.20769,1.54969442,-0.470576704,-0.921490014,0.643908262,-1.41161954,0.329488248,1.46882427,1.06679606,0.157442451,1.10931325,-1.35956907,0.765546024,-1.17511797,-1.3649168,0.618900478,-1.2690556,0.0198157486,0.0609754287,0.0114333536,0.89025563,0.0175198261,0.0119972127,0.0368324891,0.00403414853,0.924386322,0.022749899,3,0.73046875
H,30,924,0.238497213,-0.388047278,-2.00053406,-0.219930619,0.250327855,-0.72842598,0.250327915,0.406342715,-0.448831379,1.14381754,0.0702049583,-1.15955341,-1.65988457,-0.909193933,-0.169760734,-0.743698299,1.64012694,-1.2131772,-1.20407903,-0.921348989,0.0288403593,-0.171861425,0.148550555,0.885487437,0.00705601787,-0.711510539,0.00705599366,0.822132468,-0.944666028,0.958868265,0.159019381,-0.707434952,0.322229028,0.222094014,-0.0826840103,-0.711177289,0.683026969,-1.03204906,-0.262343258,0.906810045,-0.935794234,-0.414341092,1.32952917,1.00811422,-0.876153946,-0.890140295,-0.876155376,1.06634712,-1.14014757,0.76556462,0.694206774,0.756548166,1.09902275,0.543506503,-0.470576704,-0.911301494,0.896020234,-1.40108621,-0.221191749,1.5973742,1.2043575,0.196379036,1.27472699,-1.81054258,0.812766016,-1.45273125,-1.56392372,0.623924613,-1.42880118,0.0233388636,0.0440563187,0.0103604821,0.911700785,0.0105436221,0.00985197909,0.0256208461,0.00350089837,0.94375819,0.017268151,3,0.8828125
H,31,949,0.347453117,-0.562070072,-2.32298064,-0.321210712,0.380204529,-0.718435585,0.380204976,0.228031442,0.030641336,0.889880002,0.053769514,-1.11461425,-1.99808156,-0.909193933,-0.169760734,-0.733816743,1.82157052,-1.33449078,-1.19522905,-1.64838374,-0.0274807755,-0.407651037,-0.110121809,0.735620439,-0.0456386805,-0.766145349,-0.0456393138,0.599335909,-0.819998503,1.1790868,-0.60568732,-0.399355888,0.124021396,0.222094014,-0.0826840103,-0.76452738,0.835923374,-1.10715723,-0.30578196,0.65773195,-0.996799588,-0.604138255,1.62179351,1.0879823,-0.95425421,-0.908495367,-0.954255342,0.878417373,-0.99741137,0.73249501,0.872251689,0.735497236,0.815277457,-0.630379319,-0.470576704,-0.929465532,0.978480995,-1.34346986,-0.344256043,1.38620842,1.27901757,0.284804255,1.41376865,-1.38238275,0.94215095,-1.18790507,-1.23279011,0.658407807,-1.1187607,0.0134180319,0.0537383482,0.00662550842,0.913999438,0.0122186309,0.00856161769,0.029165512,0.00262812921,0.94128418,0.018360557,3,0.88671875
H,32,974,0.377125829,-0.587848008,-2.32298064,-0.827611148,0.474332213,-0.697210312,0.474332333,-0.663524985,-0.117505528,1.05338275,-0.289359927,-0.980652452,-1.97093976,-0.909193933,-0.169760734,-0.712792635,1.74409306,-1.28936422,-1.19836986,-1.36974204,-0.0692682862,-0.77049607,-0.368794173,0.585753381,-0.0428920388,-0.752858758,-0.0428923257,0.376539409,-0.478054255,0.707967818,-0.186630383,-0.373399734,0.0444497913,0.222094014,-0.0826840103,-0.751635015,0.819025874,-1.06046855,-0.286615789,0.584873736,-0.92312634,-0.871237457,1.32952917,0.608773947,-0.886764109,-0.89129144,-0.886765659,-0.0612314492,-0.704404116,0.930576086,-0.318738729,0.96884352,0.118604682,-1.30117118,-0.470576704,-0.912445188,1.2257787,-1.11286759,-0.377973527,0.498168916,1.30192852,0.317508936,1.44343209,-1.32552826,0.897847533,-1.14899504,-1.19102919,0.575159371,-1.10183442,0.0251050442,0.0356948599,0.00385472784,0.924043596,0.0113017252,0.0114813736,0.0244255885,0.00291460217,0.941197932,0.0199804697,3,0.92578125
H,33,999,0.395725936,-0.54791081,-2.00053406,-0.928891242,0.487374485,-0.684610128,0.48737523,-0.663524985,-0.305498928,1.4826932,-1.35532081,-0.877279937,-2.05352044,-0.909193933,-0.169760734,-0.700083196,1.79895091,-1.20873475,-1.25643098,-1.86254776,-0.0704276338,-0.830809355,-0.368794173,0.810553908,0.00133579853,-0.739148617,0.00133558235,-0.0690536276,-0.502432346,0.721844137,-0.0676540658,-0.459832847,0.0344759673,0.222094014,-0.0826840103,-0.73826474,0.89626503,-1.17490125,-0.246377319,0.584699631,-0.963813007,-1.14109528,0.0143398419,0.528905928,-0.938630939,-0.89442879,-0.93863225,-0.249161214,-0.538152874,0.836276829,-0.0440417714,0.345598489,-0.0893464684,-1.63656723,-0.470576704,-0.915539682,1.28250158,-1.03751612,-0.514905155,0.361000478,1.36645246,0.329526693,1.52525091,-1.37599075,0.946017325,-1.18199313,-1.07977474,0.61170727,-0.995896637,0.0221046172,0.0334752239,0.00249790028,0.933910131,0.00801213272,0.0106744412,0.0216059238,0.00265533314,0.946401,0.0186633486,3,0.97265625
H,34,1024,0.407722175,-0.696767807,-1.51686406,-1.53657186,0.504534483,-0.69539845,0.504534721,-1.55508137,-0.348146975,1.54790974,-1.33271217,-0.968122125,-2.1044693,-0.909193933,-0.169760734,-0.710875034,1.78019309,-1.10397077,-1.28800845,-1.99370611,-0.0437797904,-0.587498367,-0.368794173,0.885487437,0.0220499802,-0.758081555,0.0220496599,-0.180451885,-0.294252157,0.348659545,-0.171221167,0.0898530185,0.146052048,0.411504865,-0.0826840103,-0.756763518,0.777684271,-1.10363054,-0.0659480542,0.609654367,-1.08755732,-1.0941608,0.160471991,0.369169801,-1.06977344,-0.919370413,-1.06977451,-0.0612314492,-0.613356471,0.877414644,0.592568398,-0.367951661,-0.007284238,-1.97196317,-0.470576704,-0.940166593,1.46240759,-1.21333396,-0.492954999,0.416272432,1.42058957,0.328028828,1.60358107,-1.41483152,1.06482852,-1.20899189,-1.00742078,0.737174749,-0.904878736,0.0190363973,0.0429840535,0.00136628607,0.927909255,0.00870394614,0.00932881795,0.0225579645,0.00244842097,0.947985709,0.0176791139,3,0.9609375
H,35,1049,0.421936572,-0.628364623,-1.67808735,-1.43529177,0.539925873,-0.69428277,0.539926171,-1.55508137,-0.185547113,1.3976531,-1.4255923,-0.730184138,-2.09689546,-0.700403571,-0.169760734,-0.709820271,1.768116,-1.16606534,-1.19235563,-2.14511037,-0.0911383331,-0.706296623,-0.368794173,0.810553908,-0.000177105874,-0.776462138,-0.000177257956,-0.29185015,-0.404886067,0.548731744,-0.111809634,-0.270266116,0.0959720984,0.411504865,-0.0826840103,-0.774574697,0.881089211,-1.18297601,-0.143053964,0.580636561,-0.955871344,-1.33347142,-0.424056619,0.44903785,-1.00829172,-0.90060401,-1.00829327,-0.0612314492,-0.376335531,1.24754024,-0.338338852,-0.455404967,-0.79570806,-2.97815108,-0.470576704,-0.921583235,1.91504145,-1.04620802,-1.00807989,-0.227231011,1.50633693,0.352821052,1.68447125,-1.44808364,0.956802964,-1.22734714,-1.11086917,0.596520245,-1.02165222,0.0206465963,0.0284030158,0.00123312697,0.940664589,0.00905261654,0.0107852044,0.0194377266,0.00248191739,0.948110223,0.0191849004,3,0.97265625
H,36,1074,0.393905699,-0.462800056,-1.51686406,-1.43529177,0.486261934,-0.725984454,0.486262143,-0.841836274,-0.461613774,1.41299391,-1.28290462,-0.712822795,-1.69546711,-0.700403571,-0.169760734,-0.741176724,1.5993582,-1.03691673,-1.15235937,-1.48326218,-0.0651575401,-0.89956969,-0.110121809,0.66068691,0.0475154035,-0.814178348,0.0475153774,-0.514646649,-0.347955674,0.363113433,0.362807423,-0.568287253,0.0984347165,0.222094014,-0.0826840103,-0.811323225,0.737096131,-1.0023253,-0.172766119,0.550333977,-0.977683723,-1.2490859,0.306604147,0.369169801,-1.05019891,-0.914300144,-1.05020034,-0.249161214,-0.256533265,0.909914851,-0.207663804,0.0592794754,-0.703296244,-2.97815108,-0.470576704,-0.935191214,1.6276803,-0.969047725,-0.608336926,-0.289434284,1.44966114,0.326614678,1.61337864,-0.667015076,0.956983984,-0.734464705,-0.529024303,0.626434624,-0.534046948,0.0213937387,0.0470695272,0.00150544604,0.91766268,0.0123686194,0.0113269761,0.0225461386,0.00229853461,0.942844152,0.0209841412,3,0.97265625
H,37,1099,0.325212061,-0.282114685,-1.03319418,-0.827611148,0.381754458,-0.758693576,0.381754279,-0.306902409,-0.599183977,1.54345226,-1.8179487,-0.433657587,-1.5335803,-0.700403571,-0.169760734,-0.773728371,1.49089849,-0.970549166,-1.03970766,-1.52861035,-0.0645799413,-0.981677413,-0.110121809,0.66068691,0.045849409,-0.842647016,0.0458488464,-0.626044929,-0.326863348,0.492963046,-0.0452680103,-0.397302121,0.0479142256,0.222094014,-0.0826840103,-0.839027584,0.789586484,-0.994220793,-0.268367827,0.483761251,-0.817835033,-0.795859277,-0.277924448,0.688642025,-0.88646239,-0.897465587,-0.886463761,0.314628065,-0.920897961,1.87765932,-1.16510642,-0.138796479,-0.250818491,-2.81045294,-0.470576704,-0.918484986,1.64014482,-1.09761798,-0.850917995,0.118774973,1.4537406,0.283212751,1.56136608,-0.900803566,0.772248089,-0.87001735,-0.672780216,0.483221233,-0.683876932,0.0167348702,0.0526111983,0.00281622214,0.913936555,0.0139011033,0.00962217338,0.0224230699,0.00254311645,0.945937335,0.019474281,3,0.97265625
H,38,1124,0.347455204,-0.271943033,-1.83931065,-0.523770869,0.417116016,-0.781954527,0.417116314,0.228031442,-0.467820823,1.25772369,-1.15146661,-0.592923999,-1.45936775,-0.700403571,-0.169760734,-0.796695352,1.41927981,-0.93839246,-1.07902479,-1.2508595,-0.0795353651,-0.892637491,-0.110121809,0.510819852,-0.0419254638,-0.901372433,-0.0419261195,-0.403248399,-0.198353365,0.214216173,-0.00143245154,-0.0484756939,0.128022373,0.222094014,-0.0826840103,-0.896130502,0.63437438,-0.885746956,-0.179977298,0.553317487,-0.819147289,-0.57457304,0.0143398419,1.0879823,-0.8768664,-0.911550403,-0.876867831,0.878417373,-1.14168751,1.85669732,-0.551241219,-0.263863981,0.146427691,-2.30735922,-0.470576704,-0.932448149,1.39809155,-1.22407782,-0.755693734,0.592957377,1.39278579,0.302322179,1.50993371,-0.437811732,0.788668156,-0.565071642,-0.394715309,0.47865057,-0.440496922,0.00782233011,0.0527860709,0.00289557106,0.917949319,0.0185467582,0.00821455382,0.0202995054,0.00225797715,0.951397657,0.0178304128,3,0.9765625
H,39,1149,0.415687412,-0.251217216,-1.83931065,-0.118650518,0.526630044,-0.779803097,0.526630342,0.228031442,-0.583978474,1.40812528,-1.0570786,-0.81163764,-1.55271327,-0.700403571,-0.169760734,-0.794707656,1.45933485,-0.925146937,-1.15011835,-1.23642778,-0.131065086,-0.852520943,-0.110121809,0.286019325,-0.148737118,-0.940230906,-0.148737356,0.376539409,-0.429811954,0.705406368,-0.453253984,-0.252276808,0.0590076558,0.222094014,-0.0826840103,-0.933978498,0.685865998,-0.861488819,-0.399384022,0.516716063,-0.806754589,-0.490711629,0.0143398419,1.40745461,-0.887686491,-0.916595221,-0.8876881,1.06634712,-1.23726356,2.07210445,-0.644726157,-0.783079028,0.226748481,-2.64275503,-0.470576704,-0.937438726,1.67454791,-1.30499125,-1.12439179,0.776777923,1.38607883,0.362474233,1.53538179,-0.463821799,0.824745953,-0.568716288,-0.542209864,0.448004037,-0.567223907,0.00845641643,0.0406450219,0.00310065807,0.934985518,0.0128123192,0.00764563074,0.0178646035,0.00215841131,0.956152499,0.0161788799,3,0.98828125
H,40,1174,0.440924138,-0.0292489845,-1.51686406,0.38774994,0.547638297,-0.777167737,0.547638893,0.762965322,-0.655351102,1.3291558,-0.849936008,-0.8834005,-1.31054509,-0.700403571,-0.169760734,-0.792043209,1.40490294,-0.933512807,-1.07296872,-0.935290933,-0.129597679,-0.977991939,-0.110121809,0.211085811,-0.139592439,-0.945921361,-0.139592186,0.376539409,-0.439895928,0.798899114,-0.704022348,-0.133700147,0.0364349149,0.222094014,-0.0826840103,-0.939478934,0.668562174,-0.846015334,-0.368494153,0.448110163,-0.870991409,-0.391284913,-0.277924448,1.64705873,-0.97239387,-0.926955938,-0.972395182,1.06634712,-1.30126321,1.82265532,-0.0322768129,-0.609346926,0.529350221,-2.13966107,-0.470576704,-0.947685182,1.38216114,-1.32661104,-1.04047763,1.29638731,1.33790529,0.37760216,1.50554717,-0.335238665,0.896158814,-0.492827505,-0.473555833,0.505236924,-0.498880625,0.0060946173,0.0539615452,0.00305648078,0.922660112,0.0142273149,0.00721765915,0.0193589088,0.00204391335,0.95525986,0.016119618,3,0.96875
H,41,1199,0.419586152,-0.00124964572,-1.67808735,0.995430529,0.542313278,-0.803755164,0.542313576,0.762965322,-0.596873224,1.15269494,-0.105302185,-1.05718982,-1.35043788,-0.700403571,-0.169760734,-0.818558693,1.41370249,-1.05755663,-1.09598112,-0.63034308,-0.0951945707,-0.688495457,-0.110121809,0.510819852,-0.137359709,-0.977553546,-0.137359545,0.822132468,-0.898595035,1.41464365,-0.857477009,-0.674561322,0.0732376128,0.222094014,-0.0826840103,-0.970162749,0.674320221,-0.779043913,-0.514299691,0.529702306,-0.936241865,-0.185683846,-0.716320932,1.96653092,-0.94519031,-0.945140779,-0.945191741,1.06634712,-1.56542754,1.96352494,0.506929576,-1.28799367,1.06347501,-1.30117118,-0.324405611,-0.96575886,1.21305227,-1.22761464,-1.71436024,2.01123214,1.2720443,0.352734476,1.43432212,-0.441600204,0.938070714,-0.579603612,-0.37465176,0.577104926,-0.40884614,0.00538410526,0.0793109611,0.00443540374,0.898952663,0.0119169066,0.00701575307,0.0223049056,0.00202092528,0.953205645,0.0154528031,3,0.9765625
H,42,1224,0.391335011,-0.125131309,-2.00053406,1.29927075,0.495666146,-0.821436822,0.495666295,0.762965322,-0.274478704,0.835164845,0.479602218,-1.24055004,-1.46643329,-0.700403571,-0.169760734,-0.83601743,1.4964298,-1.11480033,-1.09576035,-0.860340893,-0.100054719,-0.298253149,-0.110121809,0.885487437,-0.189587325,-0.999614716,-0.189587638,0.822132468,-1.21725035,1.79116559,-1.39475715,-0.319461286,0.222825378,0.222094014,-0.0826840103,-0.991620123,0.668779612,-0.893749774,-0.407271683,0.669085026,-0.852628589,-0.152265385,-1.00858521,1.80679488,-0.907093883,-0.939605534,-0.907095611,1.44220662,-1.48219812,2.00249219,0.355582386,-1.78612614,0.905491233,-1.46886921,-0.324405611,-0.960258067,0.927853525,-0.846258521,-1.65459347,1.74764907,1.24061751,0.336795211,1.37751818,-0.756291211,0.846980631,-0.773221552,-0.593468249,0.500294209,-0.606265724,0.00477569038,0.0570134111,0.0053610797,0.912807047,0.020042751,0.00700730551,0.0199505314,0.00212457124,0.955006957,0.0159105957,3,0.96875
H,43,1249,0.209901541,-0.105908088,-1.83931065,1.70439112,0.290670663,-0.859690785,0.290670663,1.1195879,-0.713379681,1.20215881,0.357785553,-1.5432328,-1.27641249,-0.700403571,-0.169760734,-0.873997867,1.43500519,-1.01579738,-1.24431264,-0.278446168,-0.00663619163,-0.032786496,0.148550555,1.11028802,-0.073835738,-0.977306485,-0.0738356262,1.26772547,-1.50801635,2.05650711,-1.0523243,-0.96162051,0.281244427,0.411504865,-0.0826840103,-0.969999611,0.663215458,-0.894711256,-0.466347933,0.770222425,-0.751726031,-0.435252279,-1.00858521,1.48732257,-0.813322365,-0.926160455,-0.813323915,0.502557814,-1.01504552,1.67832077,0.608240664,-1.74528575,0.090365693,-2.47505713,-0.324405611,-0.946945727,1.53005159,-1.17748821,-1.39741302,1.03710616,1.24496651,0.18965973,1.27974248,-0.981998503,0.636429548,-0.925916493,-0.508003354,0.447852641,-0.553784132,0.00665548537,0.03993278,0.00702140294,0.928539813,0.0178504698,0.00727846753,0.0162317157,0.0024331985,0.958838344,0.015218351,3,0.953125
H,44,1274,0.119517088,-0.295593947,-2.00053406,1.50183094,0.205499768,-0.877655268,0.205499977,0.94127661,-0.658073306,1.25789392,0.0724503994,-1.44051385,-1.43037295,-0.700403571,-0.169760734,-0.89188379,1.52740896,-1.10188305,-1.15890861,-0.826413453,0.0610900484,-0.0451600067,-0.110121809,0.885487437,0.0310175419,-0.960241139,0.031017581,1.04492903,-1.35312378,1.6803503,-0.446577549,-1.0463773,0.302434653,0.411504865,-0.0826840103,-0.953394115,0.638434231,-0.910518587,-0.481185317,0.875473678,-0.780024529,-0.436255544,-1.00858521,1.40745461,-0.805835128,-0.929414868,-0.80583626,0.690487623,-0.997736573,1.33743954,0.149626702,-0.643672347,0.348760813,-1.13347328,-0.470576704,-0.950150251,1.09909356,-0.991655111,-0.818449259,0.860322237,1.1922096,0.107577391,1.18316293,-1.20639706,0.595101535,-1.07681787,-0.734914303,0.497905612,-0.757027745,0.00752912415,0.0311193708,0.0064391843,0.940642536,0.0142697915,0.00820610486,0.0169765167,0.00283125741,0.956432045,0.0155541431,3,0.953125
H,45,1299,0.0424858555,-0.262206167,-1.51686406,1.80567122,0.116268329,-0.901730001,0.116268314,1.1195879,-1.03211308,1.44656849,0.600793481,-1.8727113,-1.15850389,-0.700403571,-0.169760734,-0.915775657,1.50744951,-1.2017324,-1.21811295,-0.0256376248,0.0643536374,0.0846688673,-0.110121809,0.810553908,-0.00443905359,-0.978511095,-0.00443913369,0.933530688,-1.30045962,1.52644098,0.00678647403,-1.29892659,0.286554813,0.222094014,-0.0826840103,-0.971054912,0.616965115,-0.88704747,-0.556552172,0.931545675,-0.62981683,-0.249041885,-0.716320932,1.16785038,-0.645187974,-0.914524436,-0.645189404,0.502557814,-1.08600509,1.36496961,0.357428104,-0.741193771,0.505056918,-1.13347328,-0.470576704,-0.935431302,1.2299,-1.18370044,-0.860640585,1.0865438,1.14988005,0.0547298305,1.08338857,-1.04888463,0.416184455,-0.971377075,-0.576442897,0.371468186,-0.640585423,0.0085118236,0.0203056354,0.00929734483,0.947089136,0.0147960875,0.00762549555,0.0142689953,0.00269996887,0.961462677,0.0139427949,3,0.87109375
H,46,1324,0.0739959702,0.155777872,-1.19441748,2.21079159,0.144300312,-0.915558755,0.144300655,0.762965322,-1.68243611,1.75570977,0.900622606,-2.23157477,-0.330066621,-0.700403571,-0.169760734,-0.929472566,1.32645249,-1.24904037,-1.22081602,1.49219334,0.0308006499,0.43574658,-0.110121809,1.11028802,-0.103553504,-1.03086615,-0.103553995,0.933530688,-1.42366004,1.43545973,0.629174232,-1.68972397,0.424226403,0.411504865,-0.0826840103,-1.0218786,0.493725121,-0.85723716,-0.574098706,1.17268801,-0.586896658,-0.591979563,-0.716320932,1.00811422,-0.567795455,-0.921346605,-0.567797184,-0.0612314492,-0.935159504,1.55181241,-0.544692338,-0.50448513,0.0480417423,-1.80426514,-0.470576704,-0.942205071,1.2361412,-0.916968524,-0.502654254,0.299886107,1.01403606,0.0871752203,0.96111089,-0.746378422,0.405258447,-0.767790496,-0.423848987,0.323283553,-0.501813889,0.0126435524,0.017943209,0.00755130081,0.942971528,0.0188903045,0.00828514993,0.0152164102,0.00271106022,0.958544552,0.015242829,3,0.83203125
H,47,1349,-0.0904396623,0.178361803,-0.71074754,2.0082314,-0.0982332975,-0.96082741,-0.0982331783,0.94127661,-1.92342794,1.74739718,0.968297541,-2.13170791,0.266767174,-0.700403571,-0.169760734,-0.974454701,1.0072546,-1.06571031,-1.19464529,2.66975617,0.13749215,0.653343558,0.0192143731,1.48495555,-0.0215678923,-1.04476261,-0.0215680934,0.599335909,-1.43784678,1.50100708,0.34691143,-1.48848486,0.432826936,0.222094014,-0.0826840103,-1.03551579,0.524869204,-0.871521294,-0.601713479,1.19620645,-0.600312591,-0.379261464,0.306604147,0.848378122,-0.640166998,-0.932949901,-0.64016819,-0.0612314492,-1.14089942,1.43411791,-0.218550041,0.297761053,0.482303143,-1.46886921,-0.470576704,-0.953669131,1.26646554,-1.39488924,-0.15059115,0.684657693,0.909168959,-0.0611174218,0.778129637,-0.56802702,0.292850733,-0.678642929,-0.405165792,0.374393702,-0.488641471,0.00814217608,0.0250545703,0.00949827489,0.927494824,0.0298101269,0.00884563383,0.0168528389,0.00306195277,0.955291629,0.0159479473,3,0.734375
H,48,1374,-0.166008204,0.157807618,0.256592333,1.70439112,-0.157847479,-0.972221553,-0.157846913,0.584654033,-1.82341754,1.58505011,1.22834086,-1.98166358,0.265675426,-0.700403571,-0.169760734,-0.985924363,1.05555713,-1.28183877,-1.06770861,2.76429558,0.14882794,0.494024605,-0.110121809,1.41002202,-0.0210707951,-1.03816032,-0.0210711546,0.822132468,-1.22274923,1.22897923,0.547718167,-1.29701793,0.356571704,0.222094014,-0.0826840103,-1.02926278,0.612654626,-0.969959199,-0.561926126,1.15661919,-0.492686182,0.272044986,1.32952917,1.24771845,-0.540756166,-0.918363571,-0.540757477,0.314628065,-1.46277487,1.2234031,-0.166230962,0.922423601,1.31667876,0.878902495,-0.470576704,-0.939235389,0.635350347,-1.30921292,0.176584303,1.38503456,0.816691697,-0.118373536,0.641287386,-0.600806117,0.150406733,-0.694094777,-0.377938896,0.290951341,-0.476213396,0.00983507745,0.0342439897,0.0129826739,0.893088996,0.0498492345,0.0110696852,0.0215335675,0.00393674523,0.942183495,0.0212765988,3,0.80078125
H,49,1399,0.0496414788,0.305456251,0.417815626,1.90695131,0.0615449324,-0.935219646,0.0615451038,0.584654033,-1.59245169,1.32695246,1.58414578,-1.95234895,0.208560616,-0.700403571,-0.169760734,-0.94923526,1.09171629,-1.30558026,-0.980169535,2.58650184,0.0583608076,0.40970096,0.148550555,1.26015508,-0.104948737,-1.05951762,-0.104949005,0.376539409,-0.953671813,0.880140603,0.726801276,-1.22296631,0.301179886,0.222094014,-0.0826840103,-1.05003262,0.635533392,-0.944611192,-0.50194025,1.03285074,-0.625145137,0.461345136,1.32952917,1.24771845,-0.643713832,-0.935643494,-0.643715143,0.878417373,-1.63638663,0.922816932,0.176109552,0.648042917,1.98511112,2.05278826,-0.324405611,-0.956360936,0.145470992,-1.26670396,0.185948148,2.11450863,0.752955198,0.0615684092,0.696993709,-0.577990115,0.417733669,-0.667691946,-0.627767205,0.365325302,-0.688811481,0.0115433531,0.0504555777,0.0126199191,0.86518079,0.0602003522,0.0114442818,0.0283120833,0.00369619066,0.933436692,0.0231107511,3,0.56640625
H,50,1424,0.0668616965,0.724382639,0.74026227,1.80567122,0.0179850571,-0.939562559,0.017985139,0.94127661,-1.83633709,1.32108164,1.51087034,-1.81286228,0.807673514,-0.700403571,-0.169760734,-0.953597128,0.856084704,-1.24525678,-0.899496377,3.80165553,0.0108423121,0.6215747,0.148550555,1.48495555,-0.187482476,-1.08577728,-0.187482566,0.265141159,-0.914201498,0.698668778,0.814499438,-0.947062969,0.394276887,0.222094014,-0.0826840103,-1.07555354,0.611446559,-1.0270983,-0.219112098,1.07775903,-0.510388553,0.422200918,1.03726494,1.24771845,-0.60902065,-0.926342964,-0.609022021,0.502557814,-1.49602139,1.04334474,-0.0141457161,0.281921655,1.6268065,1.71739233,-0.470576704,-0.947121382,0.23140268,-1.17551768,0.601629496,1.41941118,0.699381113,0.0890237167,0.640380502,-1.04780781,0.340169668,-0.959002972,-0.916623592,0.253382534,-0.981732845,0.0138236191,0.0482158586,0.0127634993,0.813122392,0.112074651,0.0157329272,0.0327152945,0.00516892551,0.912522852,0.0338600501,3,0.7109375
H,51,1449,0.0151065215,0.619762182,0.579038918,1.80567122,-0.0378942639,-0.939564049,-0.0378940441,0.762965322,-1.85797107,1.33037269,1.02560329,-1.50994492,0.817606211,-0.700403571,-0.169760734,-0.953558505,0.761801958,-1.06320536,-0.855245948,3.46936655,-0.0108340178,0.657060206,0.148550555,1.78468966,-0.189073429,-1.06928337,-0.18907328,0.153742895,-1.43176723,1.45842111,0.181093022,-1.03550911,0.492555767,0.222094014,-0.0826840103,-1.05937374,0.609702051,-1.05212164,-0.387218058,1.29538178,-0.345532835,0.867279053,0.891132772,1.32758653,-0.493926615,-0.898912728,-0.493928134,0.502557814,-1.8459599,1.40578043,-0.390269935,0.206767663,2.05393267,1.38199639,-0.470576704,-0.919983387,0.100588754,-1.26793063,0.495624691,1.88457978,0.687426507,0.0611464642,0.588394046,-1.09470427,0.176897824,-0.9817698,-0.713262022,0.114919722,-0.81811887,0.00907656923,0.0482261479,0.0212008208,0.82132709,0.100169398,0.0126801459,0.025291238,0.00463184342,0.93191129,0.0254854877,3,0.66796875
H,52,1474,-0.036871817,0.237546712,-0.71074754,1.60311103,-0.0954530463,-0.938747048,-0.0954531506,0.406342715,-1.37656939,1.08016062,1.23667932,-1.53836763,0.170232967,-0.700403571,-0.169760734,-0.952834189,0.979864895,-1.14875722,-0.895099044,2.20735693,0.0149554238,0.642179549,0.407222897,1.85962319,-0.174775884,-1.04012728,-0.174776345,0.599335909,-1.57099795,1.76091254,-0.448321432,-0.738085508,0.520379841,0.222094014,-0.0826840103,-1.03097546,0.62564522,-1.0598284,-0.404203266,1.26619053,-0.325179875,1.0686065,1.4756614,1.24771845,-0.457786858,-0.888551056,-0.457788259,0.878417373,-1.79725945,1.28321445,-0.0846589133,0.345107645,2.0422008,1.54969442,-0.470576704,-0.909694374,0.274875998,-1.35450578,0.191651762,2.12431502,0.649678648,0.016791977,0.526879728,-1.07554746,0.122909091,-0.971091688,-0.946184635,0.108989112,-1.05832446,0.00726502016,0.0358749069,0.0240305718,0.859165192,0.0736643225,0.0110535407,0.0221736114,0.00410242565,0.940862715,0.0218075905,3,0.4921875
H,53,1499,0.0773843378,0.239253625,-0.0658542961,1.29927075,0.0586989149,-0.89858377,0.0586991534,-0.12859112,-1.47819459,1.40565312,0.366424203,-1.23813057,-0.184959456,-0.700403571,-0.169760734,-0.912942588,1.23144472,-1.29396772,-0.902198732,1.3500427,-0.040199846,0.482183784,0.407222897,1.33508849,-0.191127852,-1.01022232,-0.191128135,0.710734189,-1.38819659,1.44750035,0.326601148,-1.2743454,0.42076382,0.222094014,-0.0826840103,-1.00202441,0.632984042,-1.00864577,-0.457416743,1.21333075,-0.376585245,0.682768166,1.18339705,1.0879823,-0.458380401,-0.882356465,-0.458381981,0.878417373,-1.64336467,1.32569313,-0.272103578,-0.0836852416,1.72519326,0.878902495,-0.470576704,-0.903589308,0.171379253,-1.03375149,-0.213058293,2.07894588,0.669035614,0.113204464,0.601137459,-0.778762639,0.246011838,-0.761363804,-0.613522053,0.127868265,-0.710971773,0.0133591779,0.0433461666,0.026034439,0.866906643,0.0503535978,0.00917885359,0.0217184089,0.0030240512,0.947160363,0.0189183764,3,0.65625
H,54,1524,0.233835995,0.328174621,-0.71074754,0.995430529,0.192761034,-0.874197185,0.192761213,0.0497201607,-1.12747478,1.09761429,0.668980539,-1.24781346,-0.37325716,-0.700403571,-0.169760734,-0.88867265,1.13898587,-1.18903077,-0.854846954,1.23117876,-0.0948035792,0.270181477,0.407222897,1.18522155,-0.297312737,-1.03647876,-0.297312826,0.710734189,-1.67151976,2.10349631,-0.782535911,-0.938539267,0.404780239,0.222094014,-0.0826840103,-1.02746999,0.693412542,-1.03979516,-0.40937838,1.00963032,-0.523363709,0.32598272,1.32952917,1.00811422,-0.618580699,-0.906996965,-0.618582368,0.314628065,-1.59930658,1.75062323,-0.239306659,-0.778742075,1.3327117,0.0404125936,-0.470576704,-0.927958965,0.533747137,-0.952533364,-0.804983735,1.68911469,0.750162601,0.234863982,0.764524519,-0.878128648,0.470381498,-0.829899013,-0.714495957,0.223601788,-0.775911152,0.0128274262,0.0525639281,0.014440706,0.87481755,0.0453504175,0.00904747192,0.0242083929,0.00280726189,0.945142567,0.0187943224,3,0.68359375
H,55,1549,0.156136826,-0.0261371303,-1.35564077,0.489030033,0.133437201,-0.865052819,0.13343738,-0.12859112,-0.966352224,1.25823927,0.414396524,-1.34912229,-0.965597391,-0.700403571,-0.169760734,-0.8796193,1.40030742,-1.28523636,-1.07783186,0.314131439,-0.0282971188,0.302290171,0.148550555,1.11028802,-0.230718523,-0.970131278,-0.230718136,0.710734189,-1.46951771,1.69319022,-0.0343211293,-1.40955281,0.369700164,0.411504865,-0.0826840103,-0.962928772,0.584092379,-0.851685524,-0.511690378,1.01231587,-0.568738043,0.563619673,2.06018996,1.00811422,-0.665455043,-0.89801389,-0.665456295,0.502557814,-1.82212543,1.3846091,0.160427853,-0.0521607064,2.03953767,1.54969442,-0.470576704,-0.919101894,0.00809611753,-1.06653666,-0.184102908,2.30814123,0.705786407,0.161669895,0.691834152,-0.775888801,0.45054847,-0.77479583,-0.363042921,0.285964787,-0.443645895,0.00867643766,0.0464824028,0.0221313052,0.891631186,0.0310786236,0.00915558077,0.0226519722,0.00298039219,0.947692573,0.017519515,3,0.6796875
H,56,1574,0.101951055,-0.347792596,-1.83931065,0.185189754,0.127728224,-0.85527426,0.127728075,-0.306902409,-0.306596518,0.66632098,1.29697204,-1.52963221,-1.26711845,-0.909193933,-0.169760734,-0.869915962,1.49094236,-1.30021536,-1.10348535,0.0269685276,0.031541165,0.136296093,0.148550555,1.18522155,-0.132068753,-0.910002887,-0.132068455,0.822132468,-1.38930106,1.7267983,-0.543994963,-0.974412262,0.326498479,0.222094014,-0.0826840103,-0.904559672,0.650860608,-0.915594757,-0.411157608,0.912918448,-0.646353483,0.730113745,2.49858642,1.16785038,-0.714174926,-0.896143377,-0.714176118,0.502557814,-1.98087811,1.35454309,0.25839746,-0.163800105,2.4285748,2.05278826,-0.470576704,-0.917243838,-0.00829360168,-1.15083551,-0.335129768,2.55734324,0.806310892,0.105681896,0.775822461,-0.469611108,0.473037392,-0.593136668,-0.177551314,0.372898638,-0.266404808,0.00677803718,0.0711173192,0.020435527,0.866208494,0.0354606621,0.00893110223,0.0265344568,0.00289232237,0.942836225,0.0188059211,3,0.55859375
H,57,1599,0.162554219,-0.678092599,-2.32298064,-0.321210712,0.252497852,-0.835935354,0.252498209,-0.306902409,0.113557547,0.597391307,0.982698858,-1.37519693,-1.8734616,-0.909193933,-0.169760734,-0.850704193,1.68308187,-1.37951255,-1.09345746,-1.11341059,0.107958667,0.00636399351,0.407222897,0.885487437,-0.0594637468,-0.878532052,-0.0594638959,0.822132468,-1.39134407,1.87670588,-0.603924096,-1.26463246,0.207901195,0.222094014,-0.0826840103,-0.873841643,0.698003829,-0.882420957,-0.545400977,0.770378232,-1.03939939,-0.0900792256,1.91405785,1.16785038,-1.07119811,-0.946922541,-1.07119954,0.314628065,-1.69906223,1.10855234,0.158612266,0.0729739219,2.00035715,1.38199639,-0.470576704,-0.967511833,-0.147680148,-0.845900834,0.013922058,1.91630173,0.958059251,0.120569743,0.996963441,-0.315974355,0.850392997,-0.566127598,-0.343672752,0.749111831,-0.380716175,0.00661312789,0.10793566,0.0118694082,0.859741271,0.013840504,0.00888586789,0.0362993889,0.00260774349,0.933733523,0.0184734371,3,0.8359375
H,58,1624,0.225107014,-0.491994292,-1.67808735,0.185189754,0.336403131,-0.802488148,0.33640337,0.0497201607,-0.10192766,0.743079364,0.768244505,-1.33785295,-1.7116698,-0.909193933,-0.169760734,-0.817456484,1.59568989,-1.28959298,-1.12047207,-0.944074988,0.0321223177,-0.189642131,0.148550555,0.211085811,-0.101918727,-0.8569206,-0.101918712,0.265141159,-1.36771715,1.92567849,-0.856363237,-1.00780749,0.178744853,0.222094014,-0.0826840103,-0.85292238,0.76214236,-0.98867625,-0.496286422,0.734989583,-0.916306973,0.469310045,1.62179351,1.32758653,-1.01875567,-0.921239078,-1.01875687,0.502557814,-2.26349711,1.11319292,-0.0147299077,1.02248144,3.07314348,3.72976804,-0.470576704,-0.942023277,-0.353833079,-1.19925058,-0.175808638,3.15840483,1.12317073,0.186609194,1.18280041,-0.655649126,0.786396742,-0.738821864,-0.362350702,0.60753715,-0.406781137,0.00426769722,0.0794900283,0.0118884295,0.890725911,0.0136279687,0.0094723478,0.0284839515,0.00321027613,0.940047085,0.0187863652,3,0.69921875
H,59,1649,0.183550283,-0.468759775,-1.67808735,0.185189754,0.278522968,-0.783997893,0.278522998,0.406342715,0.0184132084,0.665938199,0.940756917,-1.60794342,-1.7403667,-0.909193933,-0.169760734,-0.798963904,1.5407275,-1.01931393,-1.22168267,-1.15884411,0.00274641882,-0.500949025,-0.110121809,0.136152297,-0.142833188,-0.804783046,-0.142833546,-0.29185015,-1.40519655,2.23677301,-1.64031577,-0.748273075,0.108108327,0.411504865,-0.0826840103,-0.802198648,0.727832496,-0.873810172,-0.529924989,0.625835001,-0.725321412,0.75466305,2.20632219,1.64705873,-0.879888117,-0.878071189,-0.879889488,0.502557814,-2.09779,1.00088263,0.0558590926,0.761873186,2.83237982,2.89127827,-0.470576704,-0.899241149,-0.4412103,-1.16792214,0.133237943,2.99707389,1.30982983,0.169303745,1.32828355,-0.669655204,0.595940709,-0.723657489,-0.529163063,0.428764164,-0.577422798,0.00519102206,0.0496181808,0.0209849644,0.9046399,0.0195659492,0.0105479741,0.0248087179,0.00442312146,0.939766347,0.0204538666,3,0.86328125
H,60,1674,0.131565422,-0.513607681,-1.67808735,0.590310156,0.241256207,-0.768034458,0.241256312,0.0497201607,0.0180579256,0.629886806,1.22078872,-1.70023489,-1.77365601,-0.909193933,-0.169760734,-0.783163309,1.5625658,-1.11583388,-1.19192326,-1.10169959,-0.000950227724,-0.56245774,-0.23945798,-0.238515273,-0.0723612532,-0.743833721,-0.0723612085,-0.403248399,-0.869947553,1.30956507,-0.938773096,-0.354231238,0.141802937,0.411504865,-0.0826840103,-0.742821574,0.736260772,-0.959804833,-0.32867533,0.636394262,-0.604053378,0.708209157,1.18339705,1.48732257,-0.737986565,-0.841325819,-0.737987995,1.06634712,-1.78264284,1.03804076,0.124341018,0.221865162,2.21183419,1.88509035,-0.324405611,-0.862877131,-0.146019712,-1.12525928,0.0578150004,2.51551628,1.44113386,0.136250556,1.41600978,-1.14838386,0.460747004,-1.02813792,-0.821736753,0.325421751,-0.868481994,0.00740954094,0.0288445354,0.0195872616,0.92083168,0.0233270358,0.0101412451,0.0199777503,0.00451714313,0.946794629,0.0185692534,3,0.7421875
H,61,1699,0.0821366981,-0.415070355,-1.19441748,0.38774994,0.145011395,-0.777918518,0.145011589,0.0497201607,-0.460665971,1.10385048,0.491033852,-1.63389516,-1.6006695,-0.909193933,-0.169760734,-0.792820513,1.51735771,-1.07710934,-1.24228013,-0.864655972,0.00399818411,-0.698675931,-0.110121809,-0.388382316,-0.0674989522,-0.736050189,-0.0674989074,-0.403248399,-0.644630134,1.06985772,-0.722057104,-0.414124638,0.046008084,0.411504865,-0.0826840103,-0.735279262,0.793581069,-0.9710657,-0.368269384,0.540177107,-0.519538105,0.248900667,0.160471991,1.16785038,-0.623817086,-0.824809134,-0.623818576,1.06634712,-1.39370227,1.39428687,0.00139320095,-0.0358497575,1.11945796,-0.294983357,-0.470576704,-0.846572995,0.459389895,-0.856830418,-0.529754281,1.60505927,1.61426997,0.101590537,1.54736912,-1.21396351,0.358459145,-1.06930149,-0.91828984,0.258180648,-0.980223894,0.0128393229,0.0207503643,0.0184035301,0.929856241,0.0181505401,0.00965148583,0.0166315865,0.0042446577,0.952799201,0.0166730992,3,0.84375
H,62,1724,0.196542591,-0.227638632,-0.549524248,0.286469847,0.256230682,-0.736914635,0.256230801,0.228031442,-0.443836242,1.04955971,0.291918069,-1.38273287,-1.49551463,-0.909193933,-0.169760734,-0.752159834,1.49864852,-1.13938081,-1.0545702,-1.00935566,-0.129688323,-0.731947899,-0.110121809,-0.0886482522,-0.201930702,-0.751084805,-0.201930627,-0.29185015,-0.55191952,1.10474682,-1.23219728,0.00965041015,0.0168672428,0.222094014,-0.0826840103,-0.749817133,0.761722505,-0.902988493,-0.347325295,0.405433446,-0.344543815,0.297468424,-0.424056619,1.16785038,-0.408901811,-0.785794735,-0.40890336,1.25427687,-0.824728072,0.95316267,0.320607901,-0.166399255,0.347131431,-1.97196317,-0.470576704,-0.80794245,0.891406596,-1.12779748,0.107795492,0.802832842,1.60654044,0.222426564,1.57969415,-1.05228519,0.308136523,-0.937982678,-0.998533428,0.0686948672,-1.08637738,0.0192402601,0.0225966591,0.0213692039,0.900365114,0.0364287682,0.0105799278,0.0183985401,0.00421808194,0.945096254,0.0217072982,3,0.66015625
H,63,1749,0.225311697,-0.0155216791,-0.227077603,0.590310156,0.254371434,-0.71993649,0.254371494,0.406342715,-0.395625353,0.889524043,0.71609354,-1.50179827,-1.376086,-0.700403571,-0.169760734,-0.735309124,1.40260792,-1.03196323,-1.05250871,-0.8212533,-0.213167369,-0.798919797,-0.368794173,-0.0886482522,-0.29788366,-0.756666005,-0.297884047,-0.626044929,-0.675538003,1.22866964,-0.989661694,-0.400505662,0.000939777005,0.222094014,-0.0826840103,-0.755241811,0.782561719,-0.910639882,-0.425566763,0.418867886,-0.163680345,0.156802848,-0.716320932,1.0879823,-0.117672332,-0.744401276,-0.11767374,1.44220662,-0.539693117,0.927654684,0.597990513,-0.573867679,-0.211414829,-2.30735922,-0.470576704,-0.766970694,1.3595531,-1.20592523,-0.124654576,0.330282271,1.57414663,0.269665956,1.53487968,-0.927417457,0.197176516,-0.826197565,-1.03041983,-0.100477599,-1.15532291,0.0322427377,0.0264871642,0.0232384223,0.870886803,0.0471449196,0.0134079736,0.0216048583,0.00461272895,0.933118343,0.0272561405,3,0.58984375
H,64,1774,0.185927764,-0.0902752578,-0.549524248,0.489030033,0.223930821,-0.719041109,0.223931134,-0.12859112,-0.500965834,0.90463078,0.688346326,-1.3821584,-1.2123884,-0.700403571,-0.169760734,-0.734485328,1.45270717,-1.20911598,-0.923446894,-0.582589746,-0.183529019,-0.806401253,-0.368794173,-0.238515273,-0.268332809,-0.724707305,-0.268333197,-0.403248399,-0.621395886,1.23224747,-1.08174324,-0.251847416,-0.0517527275,0.222094014,-0.0826840103,-0.72421962,0.879369795,-1.03200328,-0.444465578,0.399720758,-0.17158173,-0.0884393901,-1.30084956,1.16785038,-0.0938906074,-0.737461448,-0.0938917696,1.06634712,-0.32319808,0.765301168,0.892227173,-1.06444561,-0.455267578,-2.47505713,-0.470576704,-0.76004976,1.60275209,-1.30451035,-0.0791484565,0.0271438379,1.56999874,0.233831808,1.51084089,-1.20062876,0.174833715,-1.03488016,-1.09544218,-0.0831062645,-1.22345912,0.0309275016,0.0211197939,0.0204698443,0.889601886,0.0378809385,0.0128346598,0.0189987365,0.00449228659,0.939391673,0.0242826175,3,0.50390625
H,65,1799,0.178173736,-0.0456635579,-0.871970832,0.792870343,0.245467231,-0.744715214,0.245467275,-0.12859112,-0.436898708,0.746603251,1.11992788,-1.49352539,-1.11577833,-0.700403571,-0.169760734,-0.759992123,1.45105278,-1.27471006,-0.905444622,-0.289386302,-0.145704746,-0.492658794,-0.110121809,0.286019325,-0.237736106,-0.761465907,-0.237736225,0.265141159,-0.646048605,1.0664109,-0.295229822,-0.795969784,-0.0388691016,0.222094014,-0.0826840103,-0.75986582,0.92878592,-1.09940279,-0.457896262,0.458394289,-0.263040096,-0.341614246,-1.00858521,1.00811422,-0.18034862,-0.772353411,-0.180350214,0.690487623,-0.194973424,0.669130027,0.502692878,0.138978347,-0.665187359,-3.14584899,-0.470576704,-0.794580221,1.79706335,-1.43088329,-0.0435101539,-0.240948081,1.481161,0.215843335,1.43311727,-1.31799722,0.235125005,-1.12599874,-1.32352674,0.000104753621,-1.43040526,0.0373976231,0.0188066438,0.0187893659,0.892365515,0.032640852,0.0122217927,0.0185639765,0.00401670951,0.941861749,0.0233357418,3,0.70703125
H,66,1824,0.0849607736,-0.116562359,-0.71074754,1.09671056,0.13252452,-0.783392072,0.132524759,-0.306902409,-0.704863071,0.969882786,0.857592106,-1.47665048,-0.97383064,-0.700403571,-0.169760734,-0.798382044,1.37979996,-1.14952731,-1.06921113,-0.00342288334,-0.0869351774,-0.544071317,-0.110121809,0.0612187833,-0.164856151,-0.775240839,-0.164856568,0.0423446298,-0.49234736,0.733477354,-0.0625671819,-0.576135755,0.0187936947,0.222094014,-0.0826840103,-0.773067057,0.848048091,-1.07165039,-0.275998771,0.478533179,-0.254911304,-0.177624807,-0.131792307,1.24771845,-0.221204326,-0.781160474,-0.221205696,0.314628065,-0.272043914,0.506236374,1.08999133,-0.380404294,-0.330532968,-2.64275503,-0.324405611,-0.803289413,1.61237133,-1.42626154,-0.0403907821,0.0186191909,1.3593744,0.134041309,1.26255727,-1.02858973,0.161845118,-0.922747731,-1.17567086,0.0165545885,-1.29456353,0.0280258134,0.0182594024,0.0185726304,0.896655619,0.0384865105,0.0110111116,0.0176887643,0.00378538948,0.946040571,0.0214742031,3,0.625
H,67,1849,0.144285351,-0.113429666,-1.03319418,0.792870343,0.188268572,-0.785368443,0.1882689,-0.12859112,-0.194617167,0.458216757,1.58971572,-1.53422034,-1.11732829,-0.700403571,-0.169760734,-0.800376236,1.34917951,-1.07399964,-1.05451488,-0.0991102904,-0.11033424,0.0108012604,-0.110121809,0.810553908,-0.241663054,-0.817566454,-0.241663054,0.710734189,-1.12458694,1.31179702,0.365258723,-1.44519126,0.18786788,0.222094014,-0.0826840103,-0.814196765,0.788177252,-1.08217454,-0.409894288,0.80853188,-0.299596399,0.221404985,0.452736288,1.80679488,-0.316738844,-0.801474154,-0.316740096,0.690487623,-0.798019588,0.691560566,0.710453153,0.333713412,0.500755131,-0.462681353,-0.470576704,-0.823417306,1.12579739,-1.48919487,0.150483027,0.80569303,1.19320321,0.181498379,1.13687074,-0.751924872,0.2375312,-0.723590314,-1.22756994,0.0415684953,-1.32858169,0.0192966778,0.037721891,0.0253950469,0.864133239,0.0534532294,0.0111559313,0.024679346,0.00409153616,0.934019983,0.0260532647,3,0.765625
H,68,1874,0.105936266,-0.307771236,-1.67808735,0.995430529,0.185088277,-0.810373664,0.185088679,-0.485213697,-0.473778844,0.861576498,1.55510628,-1.87582076,-1.37046301,-0.909193933,-0.169760734,-0.825150609,1.4713279,-1.13004029,-1.42558229,0.178290695,-0.0579603389,-0.0166763905,-0.110121809,0.66068691,-0.224794179,-0.836607337,-0.22479485,0.599335909,-1.31719458,1.7333988,-0.472741395,-1.04201543,0.212901399,0.222094014,-0.0826840103,-0.832792044,0.807406306,-1.1131922,-0.362743467,0.760683239,-0.378881544,0.319371939,0.745000601,1.88666296,-0.434807032,-0.826021433,-0.434808314,0.878417373,-1.15364516,1.12585688,-0.0224626064,0.200939119,0.854103208,-0.294983357,-0.470576704,-0.84778899,0.794822812,-0.940191925,-0.749581397,1.1853044,1.26723003,0.138313785,1.20059681,-0.875377536,0.26856783,-0.825190067,-0.940916777,0.122883953,-1.03015804,0.0118853692,0.0195014533,0.0176441073,0.921090603,0.029878512,0.00950478856,0.0171057098,0.00387836038,0.951080203,0.0184309762,3,0.78125
H,69,1899,0.103477538,-0.213879451,-1.51686406,1.09671056,0.180819243,-0.828266442,0.180819154,-0.841836274,-0.743537128,1.03924537,1.25615919,-1.86359715,-1.08089459,-0.700403571,-0.169760734,-0.842875957,1.45862925,-1.13452017,-1.41903198,0.546060383,-0.0681930557,0.309172243,-0.110121809,0.810553908,-0.191293553,-0.876227677,-0.191293612,1.15632725,-1.15517986,1.21767879,0.479450613,-1.34312177,0.295694828,0.222094014,-0.0826840103,-0.87155205,0.703990877,-1.04922283,-0.307568401,0.948657572,-0.344049126,0.694032431,1.32952917,1.48732257,-0.470270693,-0.832145214,-0.470271945,1.25427687,-1.38431966,0.840347648,-0.126357988,0.19217065,1.59114516,0.543506503,-0.470576704,-0.853823304,0.014661978,-0.598074794,-0.599293351,1.83860767,1.15942991,0.14011839,1.08908546,-1.00563371,0.240805387,-0.912769914,-1.01028788,0.0919159353,-1.10628641,0.0135792475,0.0178341884,0.0286829714,0.907022715,0.0328808241,0.00928772427,0.0162198059,0.00382645777,0.952973664,0.0176923592,3,0.85546875
H,70,1924,0.11632324,-0.161666885,-1.03319418,0.995430529,0.165756881,-0.84645611,0.165757149,-0.485213697,-0.904560804,1.18564534,1.16019261,-1.92293739,-1.01283801,-0.700403571,-0.169760734,-0.860987186,1.42926192,-1.08958519,-1.51592982,0.929537714,-0.076016441,0.433464408,0.148550555,1.33508849,-0.147808358,-0.923382342,-0.147808552,1.37912381,-1.40835011,1.40813458,0.239106342,-1.09819734,0.50174123,0.222094014,-0.0826840103,-0.917378485,0.646797657,-1.10792696,-0.248165593,1.20897615,-0.345739901,0.762761533,1.18339705,1.48732257,-0.440747052,-0.847149014,-0.440748274,1.06634712,-1.13519728,0.892452598,0.11124678,-0.238357782,1.0451113,-0.127285391,-0.470576704,-0.86869669,0.0957371294,-0.418742925,-0.950967669,1.53471088,1.04554772,0.151328489,0.983995974,-0.553428054,0.251393914,-0.594124913,-0.626805067,0.0902308077,-0.726380527,0.013744371,0.0250269696,0.0171376579,0.892202437,0.0518885255,0.00915393885,0.0178106446,0.00315118046,0.9491207,0.0207635518,3,0.7421875
H,71,1949,0.117479429,-0.0723936409,-0.549524248,0.590310156,0.140671432,-0.857168734,0.140671968,-0.306902409,-0.879855514,1.10584033,0.51072526,-1.42513263,-0.812271655,-0.700403571,-0.169760734,-0.871674895,1.24301028,-0.975060165,-1.30992258,0.799243212,-0.0750342235,0.341711879,-0.110121809,1.18522155,-0.133841008,-0.946610987,-0.133841023,1.15632725,-1.24170959,1.24222684,0.358334452,-1.14008117,0.408562243,0.222094014,-0.0826840103,-0.939806581,0.593853116,-0.982206523,-0.248045757,1.03484023,-0.350838184,0.851848423,1.18339705,1.32758653,-0.439750969,-0.855559468,-0.43975237,1.63013637,-1.15106404,0.796509147,0.257835925,-0.909816921,1.21249831,-0.127285391,-0.470576704,-0.87700659,0.049492158,-0.330882609,-0.852296174,1.59028101,0.854269385,0.151767075,0.797376752,-0.198021576,0.256021708,-0.345385611,-0.363516986,0.0945543945,-0.466066778,0.0155131705,0.0475224033,0.0182347409,0.844062746,0.0746669695,0.0109891742,0.0256610755,0.00344915595,0.931885242,0.0280153863,3,0.67578125
H,72,1974,0.182737038,0.113175079,-1.03319418,1.19799066,0.215947613,-0.869916499,0.215947866,0.584654033,-1.03572857,1.25401092,0.419746727,-1.38932347,-0.794359267,-0.700403571,-0.169760734,-0.884197593,1.22846425,-1.01359713,-1.2779057,0.955682755,-0.201885477,0.735386968,0.148550555,1.63482261,-0.314049542,-1.02976155,-0.31404987,1.60192025,-1.59516859,1.59973562,0.244691879,-1.30549276,0.593280673,0.222094014,-0.0826840103,-1.02086866,0.6286847,-1.09231031,-0.242010564,1.28250468,-0.115251973,1.2453506,1.32952917,1.00811422,-0.19000338,-0.838626564,-0.190004826,1.81806612,-1.00505972,0.526629448,0.262226194,-0.13792631,1.15260124,0.0404125936,-0.470576704,-0.860112488,0.00751226209,-0.445759624,-0.634024262,1.68383873,0.815934956,0.238025144,0.759720445,0.0554724932,0.132725582,-0.0836944133,-0.215704829,-0.131728053,-0.333200127,0.0168603268,0.0302060712,0.02072284,0.821085632,0.111125104,0.0115958881,0.0222649109,0.00348575204,0.927938759,0.034714736,3,0.6953125
H,73,1999,0.186047286,0.320352286,-0.71074754,1.80567122,0.186871991,-0.899000704,0.186872527,0.762965322,-1.16308963,1.16981673,0.56248641,-1.44706368,-0.370361894,-0.700403571,-0.169760734,-0.913109541,1.04936922,-1.03175676,-1.03038168,1.48344028,-0.257264674,1.07135415,0.795231462,1.63482261,-0.3783786,-1.10017526,-0.378379136,1.26772547,-1.49614179,1.19033456,-0.376869917,-0.0397134908,0.930436492,0.411504865,-0.0826840103,-1.08951259,0.177429318,-0.85297972,0.386140913,1.43507659,0.0266444776,1.16222322,1.03726494,0.848378122,-0.0567000993,-0.840355396,-0.0567016304,2.00599599,-0.596404731,0.449222684,1.02226567,-0.655248284,0.440147281,-0.630379319,-0.470576704,-0.861897826,0.714171886,-0.788409472,-0.703276515,1.07490587,0.65862,0.259241849,0.589280725,0.000349414331,0.0370478146,-0.0858802944,0.0328984261,-0.255463541,-0.0794314966,0.0139922304,0.0252129808,0.0122355027,0.714344978,0.234214365,0.0124866301,0.0217611827,0.00318539189,0.904218018,0.0583487265,3,0.57421875
H,74,2024,0.158845022,0.29942745,-0.871970832,1.70439112,0.139782012,-0.906985283,0.139781892,1.29789913,-1.15745199,1.14213848,0.132136106,-1.03382289,-0.294955224,-0.700403571,-0.169760734,-0.920960069,0.896552026,-0.802436292,-0.982637465,1.26349306,-0.229316503,1.1457628,0.665895283,1.78468966,-0.327535391,-1.10031772,-0.327535301,1.15632725,-1.4864608,1.06032646,-0.186721355,-0.0225074068,0.991386831,0.411504865,-0.0826840103,-1.0891788,0.071822159,-0.76167798,0.450816751,1.49925959,0.00166189403,1.05905652,0.745000601,0.768510103,-0.0882937536,-0.846221566,-0.0882956386,1.63013637,-0.390986443,0.0342923887,1.43557525,-0.466551751,0.484855056,-0.630379319,-0.470576704,-0.867657423,0.609593153,-0.816548049,-0.448027998,1.15204036,0.564827263,0.231734648,0.490256965,0.00464905752,0.0346101709,-0.0970480442,-0.177200764,-0.226801962,-0.300297499,0.0144053092,0.0276973527,0.0127776265,0.688432455,0.256687254,0.0144524388,0.0251773316,0.00360069028,0.884622097,0.0721473545,3,0.57421875
H,75,2049,0.0127967438,0.312894046,-0.549524248,1.29927075,0.0156327114,-0.928526759,0.0156329963,1.47621047,-1.29712379,1.06091607,0.0485121347,-0.902117193,0.206139281,-0.700403571,-0.169760734,-0.942353308,0.695296645,-0.680631638,-0.777515352,1.82739329,-0.0991453677,0.937051058,1.44191229,1.63482261,-0.512916028,-1.06116807,-0.512915909,0.822132468,-1.19338167,0.70549655,-0.320107698,0.747596681,0.818923533,0.222094014,-0.0826840103,-1.05146658,-0.442711264,-0.458448142,0.565748096,1.34262085,-0.0902180746,0.65810442,0.160471991,0.44903785,-0.127839684,-0.854674935,-0.127841234,1.25427687,-0.33620435,0.215463519,0.654381275,0.476677746,0.154068813,-0.630379319,-0.324405611,-0.876078904,0.822169483,-0.914679706,-0.126868173,0.54020983,-0.293973327,0.0892904922,-0.377265632,-0.495204508,-0.00865936093,-0.526571393,0.177104548,-0.110303529,0.0719445571,0.0167591143,0.0223587062,0.00800047256,0.789069593,0.163812205,0.0188192986,0.0363688879,0.0041371691,0.881050348,0.0596243143,3,0.87109375
H,76,2074,-0.578252017,-0.505717516,-1.19441748,1.29927075,-0.527515411,-0.92147541,-0.527515292,1.6545217,-0.818477988,0.677727997,0.709414303,-1.06000197,-0.148297563,-0.700403571,-0.169760734,-0.935459971,0.792590439,-0.852252901,-0.63703239,1.28918922,0.303688407,0.272897005,0.795231462,0.585753381,-0.539089262,-0.60734874,-0.539089084,0.153742895,-0.863990903,0.545379698,-0.751171708,1.46107054,0.497077048,0.222094014,-0.7227844,-0.61003834,-0.921806335,0.0229101181,0.536835611,1.04002368,-0.264247209,-0.209037259,0.0143398419,0.209433675,-0.368261129,-0.765140474,-0.368262559,1.25427687,0.106152676,0.161909074,1.01264739,0.617649555,-0.763799667,-2.47505713,-0.324405611,-0.787488937,1.51683998,-1.10782897,-0.647268951,0.103024557,-1.40329981,-0.480780274,-1.49423516,-0.606728435,-0.360463887,-0.729633272,0.0547128804,0.169841155,-0.0564227104,0.00647774106,0.00633998262,0.0103495941,0.951761425,0.0250713378,0.012828419,0.0255234707,0.00515820272,0.933276653,0.0232131705,3,0.76171875
H,77,2099,-0.98685956,-1.09229946,-1.35564077,1.29927075,-0.944111049,-0.888400078,-0.944111049,1.47621047,-1.2278955,1.22315729,0.4101969,-1.4740684,-0.280024111,-0.700403571,-0.169760734,-0.902449012,0.972300768,-0.736084461,-1.12971675,1.2324636,0.63218224,-0.438127607,1.05390382,0.136152297,-0.298940301,0.0145357875,-0.298940927,-1.40583277,-0.163993329,0.0443663262,-1.37862551,2.1593051,0.232597947,0.0326831751,-0.7227844,0.0546230301,-1.40658987,0.783503175,0.31161961,0.664217949,-0.691937029,-0.750249326,-0.131792307,0.44903785,-0.775340199,-0.715310216,-0.775341809,0.690487623,-0.0945837274,0.270566195,1.22283661,-0.0929734707,-0.434427947,-2.13966107,-0.470576704,-0.738153994,1.17684853,-0.752437294,-0.935270727,0.505433261,-1.44768858,-0.93358314,-1.57161236,-0.750230312,-0.411544204,-0.912649035,-0.277870774,0.630240917,-0.379698366,0.00338312658,0.00569657749,0.0859084055,0.902352989,0.00265886378,0.0275707841,0.0448818877,0.209027991,0.692351699,0.0261676256,3,0.96875
H,78,2124,-1.39471281,-1.34522951,0.0953690112,1.40055084,-1.33996701,-0.860200107,-1.33996689,1.1195879,-1.55769277,1.2227658,-0.240279898,-0.752885342,0.47103101,-0.700403571,0.0416170694,-0.874602973,0.715449095,-0.858412921,-0.645242035,1.70469332,0.825400174,-1.06015706,0.148550555,-0.688116372,0.238021284,0.914235771,0.238021061,-2.51981544,0.0373099335,-0.038735453,-1.55889833,2.23417759,0.151277512,0.222094014,-0.7227844,1.02196229,-0.764548838,0.0674661547,0.379198521,0.478047907,-0.789728284,-1.17426527,-0.716320932,0.0496975631,-0.914896011,-0.556643426,-0.914897263,0.502557814,0.114550777,0.203023478,-0.202213377,0.646056294,-0.624930203,-0.798077285,-0.470576704,-0.581015944,0.392025411,-0.00083752349,-0.142917916,-0.580144882,-2.16834497,-1.39207423,-2.11775374,-1.19969857,-0.765618145,-1.14787805,0.57724756,0.781456649,0.456051826,0.00220010336,0.0163650326,0.483980656,0.495793402,0.00166076864,0.00103839219,0.00125514029,0.992594421,0.00413799332,0.000974114635,3,0.9609375
H,79,2149,-1.07507908,-1.29436862,0.0953690112,0.69159025,-1.13220155,-0.620803893,-1.13220155,1.1195879,-0.919712186,1.06501174,-1.51142621,-0.553406179,-0.156909704,0.343548238,-0.169760734,-0.634814501,-0.331553459,1.07209349,-0.595485389,-0.336126149,0.542689025,-1.08105457,-0.110121809,-0.688116372,0.202738196,1.37517273,0.202738017,-2.40841699,0.259068698,-0.823925078,0.210780501,1.90521181,0.088683933,-0.156727672,-0.7227844,1.42767096,-0.558357954,-0.294436336,0.584797561,0.718704283,-0.272377044,-0.814664781,-0.570188761,-0.429510802,-0.495939642,-0.189315334,-0.495941103,-0.0612314492,0.952558577,-0.710681498,-0.368353158,0.969977915,-0.933202147,-0.630379319,1.72198975,-0.217214003,-0.0144200353,0.437364995,0.726260483,-1.15745175,-1.76030493,-0.987212896,-1.82262528,-0.883561134,-0.823246717,-0.950673878,0.830710948,0.262192577,0.78171432,0.0408199131,0.0185127761,0.535677791,0.387525201,0.0174643397,0.00266251061,0.00278909248,0.985217392,0.00673609786,0.00259482209,3,0.765625
H,80,2174,-0.941543698,-1.0841527,0.901485562,0.489030033,-1.0504936,-0.415558249,-1.05049348,1.29789913,-1.21185195,1.14876938,-1.33228302,-1.11006761,0.108129323,0.761128962,-0.169760734,-0.432380021,-0.454880029,1.35727859,-0.836612642,-0.0365548879,0.492422342,-0.850446224,0.148550555,-1.28758454,0.369623542,1.95325077,0.369623303,-2.63121367,0.273221791,-0.843854249,-0.190396503,2.2638123,0.24970004,0.222094014,-0.7227844,1.99724162,-0.681388676,-0.0612646751,0.786220372,0.686158538,-0.300107121,-0.849720359,-0.570188761,-0.429510802,-0.406941086,-0.0218838006,-0.406942397,0.314628065,0.81449616,-0.268153042,-0.8389498,1.14358592,-1.16526318,-0.798077285,-0.76291889,-0.0512474254,0.403879881,0.231817439,0.353553236,-1.19009435,-1.40310025,-0.848901272,-1.53726315,-0.725751281,-0.669558227,-0.854838312,1.27479017,0.265407354,1.24595559,0.0340889692,0.0165391993,0.812303841,0.130147532,0.00692041591,0.000956319389,0.00101876585,0.995002568,0.00221395981,0.000808466575,3,0.546875
H,81,2199,-0.865078807,-1.1461736,0.579038918,0.69159025,-0.939430475,-0.333718866,-0.939430296,1.29789913,-0.923406243,1.23545671,-1.74736559,-0.80364269,-0.424471259,0.134757861,-0.169760734,-0.350937873,-0.192253217,1.22427571,-0.946903884,-0.667097032,0.44301644,-0.353534192,0.92456764,-1.13771749,0.421965837,2.08164215,0.421965629,-2.18562055,0.332476556,-1.08926213,-0.148064494,2.71857595,0.367469788,0.411504865,-0.7227844,2.09216285,-0.804143608,-0.15474008,1.26936996,0.625069201,-0.256815195,-0.977672875,-0.424056619,-0.429510802,-0.313997805,0.0488053784,-0.313999563,-0.0612314492,0.815804183,-0.121718876,-0.859913468,1.22260141,-1.36103964,-0.798077285,-0.909089983,0.0188616253,0.512511969,0.251830876,0.073083818,-1.17403269,-1.33566773,-0.765519619,-1.47489488,-1.17068946,-0.627405047,-1.08285224,1.24685538,0.214740112,1.22218359,0.0460481532,0.0159709118,0.85749203,0.0749377534,0.00555117754,0.00114250812,0.00113061664,0.994314253,0.00250784773,0.000904755085,3,0.546875
H,82,2224,-0.78947562,-0.98448956,0.901485562,0.69159025,-0.852561176,-0.290674418,-0.852560818,1.1195879,-0.643037498,0.820788205,-1.41052139,-0.503045022,-0.238863602,0.134757861,-0.169760734,-0.308371216,-0.296201408,1.05068624,-0.628473699,-0.420715839,0.329608172,0.0286111906,1.05390382,-0.837983429,0.331088305,1.97001886,0.331088156,-2.18562055,0.059478689,-0.911479592,-0.935797632,3.4298501,0.785789073,0.411504865,-0.936151206,1.96850705,-0.820411563,-0.229717076,2.05585265,0.813120544,-0.0291973725,-0.54869473,-0.424056619,-0.828851104,-0.048252143,0.181086838,-0.0482535958,-0.625020742,0.906801224,-0.650022745,-0.657679915,0.898434162,-0.92400229,-0.630379319,1.72198975,0.149727926,-0.264918983,0.851593018,0.320534229,-1.10173845,-1.27927148,-0.663930237,-1.42403114,-0.925855756,-0.71718353,-0.92255187,1.66587794,0.00598372659,1.74213731,0.0635376126,0.0166608989,0.835056186,0.0614062138,0.023339022,0.0013130795,0.00122464693,0.993786335,0.00258338125,0.00109260774,2,0.6953125
H,83,2249,-0.721623123,-1.03656769,0.579038918,0.286469847,-0.73699671,-0.233881414,-0.736996591,0.584654033,-0.226851374,0.68270278,-2.00313139,0.0414300561,-0.469749212,0.134757861,-0.169760734,-0.252444059,-0.279352576,1.14571679,-0.483237833,-1.07872438,0.162917852,0.575666785,1.95925701,-0.688116372,0.105948932,1.89553404,0.105948515,-1.40583277,-0.198242441,-1.10424566,0.443813145,1.98081923,1.18598819,0.790326536,0.557416379,1.84843647,-1.04176009,-0.147593483,2.18906069,1.2400105,0.330934674,-0.363478333,-1.15471733,-1.22819138,0.426255703,0.433535963,0.426253945,-0.812950492,1.08091772,-0.446032792,-1.40144873,1.45790207,-1.26719725,-0.798077285,1.72198975,0.400102526,-0.0453081466,0.996021628,-0.0694196969,-1.47154593,-1.20469832,-0.552449942,-1.36336422,-0.266095579,-0.89286387,-0.453878313,1.78249788,-0.303477913,1.98960042,0.135891154,0.0140644554,0.786344767,0.0401767939,0.0235228613,0.00418383535,0.00255513052,0.984638035,0.0054518762,0.00317103695,2,0.35546875
H,84,2274,-0.535391986,-1.02716959,-0.71074754,-0.523770869,-0.527335048,-0.10958118,-0.527334929,-0.12859112,0.224116564,0.253124267,-1.05294824,-0.201119021,-0.716564953,-0.282822847,-0.169760734,-0.129010513,-0.0449969992,0.985232592,-0.599655449,-1.24425113,-0.008329303,1.00564826,1.82992089,-0.613182843,-0.0408808365,1.74848282,-0.0408805013,-0.960239708,-0.280147702,-1.34184921,0.457952112,1.58468568,1.65844011,2.11620235,-0.0826840103,1.68950546,-2.03194404,1.18617535,1.87266457,1.41467476,0.51408267,-0.191607177,-1.44698167,-0.748983026,0.55472666,0.55980438,0.554725468,-0.812950492,0.901841283,-0.32753247,-0.90728724,0.402171195,-1.24019849,-0.965775311,1.72198975,0.524938464,-0.201034561,1.26824272,-0.678269982,-1.30372477,-1.23958933,-0.344160497,-1.37020934,-0.44618386,-0.842010021,-0.502380371,1.21992195,-0.486763984,1.34553206,0.0728661045,0.00708863419,0.890640318,0.0202339254,0.00917102117,0.00192998105,0.00119763042,0.993189335,0.00248733978,0.00119581923,2,0.76171875
H,85,2299,-0.853799462,-1.23937356,-0.71074754,-0.219930619,-0.823922038,-0.314663559,-0.823921978,-0.663524985,-0.152687401,0.319148809,-0.413165182,-0.404883176,-0.459544957,-0.700403571,-0.169760734,-0.331445158,-0.021639144,0.537185192,-0.525791407,-0.469285458,0.228823602,0.841157317,1.31257617,-1.36251795,0.231626853,1.959162,0.231626451,-1.07163799,-0.239734128,-1.12625861,0.0600457564,0.921094477,1.47500229,2.11620235,2.26435089,1.93247402,-2.39618158,2.12549067,1.15585721,1.05195534,0.329556108,-0.39741075,-0.716320932,-0.589246929,0.355408579,0.440369368,0.355407178,-0.625020742,0.904315531,-0.528602719,-0.238706484,-0.605886281,-1.1684283,-0.965775311,1.42964756,0.406776726,-0.302453548,1.37826514,-0.501364052,-1.27213061,-1.6692512,-0.686878443,-1.74544787,-0.401714027,-1.01493168,-0.57235384,0.729890168,-0.278157324,0.745815039,0.00402558129,0.000629505957,0.993664622,0.00144453975,0.000235745727,0.000372296141,0.000377708056,0.998145103,0.000816484215,0.000288406387,2,0.984375
H,86,2324,-1.05196249,-1.37976336,-0.71074754,-0.422490805,-0.995247185,-0.444034934,-0.995247245,-0.485213697,0.699012101,-0.497456163,1.00885737,-0.340975642,-0.781925917,-0.700403571,-0.169760734,-0.460028976,0.446899146,-0.271917999,-0.0704354495,-0.96090436,0.254077524,1.05918908,1.70058465,-1.36251795,0.230316281,1.94600606,0.230315983,-1.40583277,-0.305158168,-1.55197442,0.755889177,0.243011475,1.82471716,2.30561328,2.47771764,1.91686547,-2.88790655,2.62973928,1.36568582,1.2818234,0.501349211,-0.280496478,-1.44698167,-0.988587201,0.546650171,0.542753875,0.546648741,-1.18880999,0.927508414,-0.625883758,-0.196852759,-0.757088959,-1.11313081,-0.965775311,1.57581866,0.508188426,-0.326405883,1.38748264,-0.504701257,-1.34273696,-2.23004937,-0.873593509,-2.17035508,-0.274563342,-1.31657672,-0.515204728,0.958762228,-0.380598605,1.0607686,0.000859538268,0.000205658434,0.998439252,0.000432401052,6.31691364e-05,0.0003067613,0.000316776743,0.998420715,0.000706711609,0.000248945114,2,0.9765625
H,87,2349,-1.12927842,-1.37932205,0.0953690112,-1.03017139,-1.08016765,-0.396196008,-1.08016753,-1.02014756,0.481418818,-0.325867087,0.0259908531,-0.0762773901,-0.363422841,-0.282822847,-0.169760734,-0.412819803,-0.208797559,0.6433599,0.10156627,-1.05066919,0.19892402,0.830510914,1.70058465,-1.43745148,0.354112685,2.31814265,0.354112744,-1.85142577,-0.351826549,-1.19851744,0.418734193,0.492172122,1.60923755,2.30561328,-0.296050817,2.2933898,-2.47797084,2.24324989,0.976090729,1.30066729,0.72111088,0.121076792,-1.30084956,-1.22819138,0.784424186,0.911860883,0.784423172,-0.812950492,0.849603355,-0.437631607,-0.88639009,-0.562826574,-1.10476744,-0.798077285,-0.324405611,0.873634398,-0.563667834,1.85142088,-0.628491759,-1.54717827,-2.10490751,-0.928586066,-2.07607698,-0.249108285,-1.52781296,-0.485935837,0.883293927,-0.538270354,1.00467753,0.00116580783,0.000165094985,0.99848628,0.000150466993,3.2324042e-05,0.000285986869,0.000290260941,0.998526037,0.000663736544,0.000234069477,2,0.98046875
H,88,2374,-1.07212186,-1.40197134,0.256592333,-1.13145149,-1.04046357,-0.300663769,-1.04046333,-1.19845879,0.550480664,-0.22501412,-0.543441653,0.196628407,-0.499401212,-0.0740324929,-0.169760734,-0.317076236,-0.148708001,0.543168426,0.241472721,-1.60557711,0.234798074,0.534344673,1.18323994,-1.66225207,0.450982392,2.58366632,0.450982153,-1.96282399,-0.089836359,-1.5272857,1.04291081,0.151207253,1.44662261,1.92679155,-0.296050817,2.61510921,-2.42049789,2.25296021,0.570830226,1.22447777,0.572034419,-0.114697531,-1.44698167,-0.988587201,0.602445006,0.915163338,0.602443397,-0.249161214,0.933069646,-0.36385873,-0.449106902,-0.82739085,-1.34803689,-1.30117118,-0.324405611,0.876745939,-0.0425256826,1.49193919,-0.837566376,-1.60309279,-2.13768959,-0.886165857,-2.10183764,-0.516835809,-1.38011944,-0.658060253,0.835818052,-0.432531595,0.919175565,0.00142186822,0.000194991386,0.998158872,0.000203799995,2.04626613e-05,0.000286354654,0.000294740108,0.998519003,0.000667812245,0.000232057675,2,0.8984375
H,89,2399,-1.16329277,-1.41473341,0.0953690112,-0.827611148,-1.16208708,-0.338298589,-1.16208708,-1.02014756,0.441489697,-0.241723984,-0.0488077626,-0.249218449,-0.408272982,0.343548238,-0.169760734,-0.355096698,-0.28939274,0.873933196,-0.0121199358,-1.35421002,0.280611604,0.473882347,1.18323994,-1.7371856,0.497402728,2.70211577,0.497402221,-2.18562055,-0.0391881987,-1.34846377,0.205113783,1.09535062,1.35093665,1.92679155,-0.296050817,2.80262041,-2.30839825,1.908216,0.89520663,0.960042238,0.557977974,0.0264770817,-0.716320932,-0.669114947,0.571492493,0.955010176,0.571490705,-0.0612314492,0.526906192,-0.177708521,-0.54935497,-1.19504511,-0.946131289,-0.798077285,-0.324405611,0.916356206,-0.411168128,1.55501187,-0.62388593,-1.31221867,-2.24181175,-0.987829983,-2.17248464,-1.69290984,-1.46614099,-1.37604249,1.08473349,-0.406825304,1.23573804,0.000701477518,0.000111558875,0.998995125,0.00017600003,1.58073017e-05,0.000264759758,0.000271349505,0.99861908,0.000630310504,0.000214552187,2,0.94921875
H,90,2424,-1.28806138,-1.52065313,0.256592333,-0.827611148,-1.27040637,-0.429985762,-1.27040648,-1.02014756,0.401971996,-0.237224117,-0.416869074,0.130947158,-0.216642052,0.134757861,-0.169760734,-0.447330564,-0.194624767,0.473503679,0.487970144,-1.33572865,0.332165033,0.297047079,1.18323994,-1.7371856,0.553374767,2.66116929,0.553374231,-2.40841699,0.198119864,-1.6873225,1.20370543,0.828473866,1.14903343,1.16914821,-0.296050817,2.83744073,-1.87313437,1.15644693,1.19440269,1.10250008,0.560552955,-0.0161575116,-1.15471733,-0.908719122,0.614109635,0.935033023,0.614107609,0.314628065,1.22030163,-1.01383817,0.537252247,-1.0582943,-1.23605716,-0.630379319,2.01433182,0.896830022,-0.127863944,1.15753782,-0.158060506,-1.56517124,-1.75086379,-1.12789845,-1.8324877,-1.16111243,-1.60212779,-1.07026112,1.75939488,-0.389607042,2.10114002,0.00185276696,0.000185176264,0.997379541,0.000523692521,5.88102666e-05,0.00026879381,0.000268392672,0.998607934,0.000628215435,0.000226622476,2,0.9296875
H,91,2449,-1.18735456,-1.44831979,0.0953690112,-1.23273158,-1.13304305,-0.361543775,-1.13304317,-0.663524985,0.316071898,-0.0145358043,-1.31196725,0.557711899,-0.21104829,0.134757861,-0.169760734,-0.379217505,-0.114286132,0.401349068,0.504121065,-1.50395215,0.205378339,0.418862283,1.18323994,-1.51238501,0.384637326,2.57262158,0.384637475,-2.18562055,0.0997063369,-1.62013841,1.08224058,1.19470727,1.22043502,1.16914821,-0.296050817,2.69038749,-1.84186292,0.930334926,1.50370061,1.18909597,0.766176641,0.0995777845,-1.30084956,-1.30805945,0.895062864,1.11969316,0.895061374,0.314628065,1.12435317,-0.777628362,0.127005652,-1.1881119,-1.30857182,-1.30117118,1.86816084,1.08041191,-0.401739985,1.67853391,-0.523719907,-1.58713198,-1.48731327,-0.986783445,-1.64625037,-1.45969951,-1.61521566,-1.23655403,1.36512065,-0.563306689,1.64276218,0.0049776719,0.000193255692,0.993985355,0.000771697669,7.21001488e-05,0.00029104788,0.000280959182,0.998532653,0.000660324062,0.0002351109,2,0.94921875
H,92,2474,-1.24985266,-1.63154125,-0.0658542961,-1.53657186,-1.19392514,-0.420999587,-1.19392478,-1.55508137,0.331405997,0.0346922986,-1.70026779,0.738792956,-0.193455786,0.134757861,-0.169760734,-0.438429564,-0.219247773,0.609694004,0.445723534,-1.67933774,0.1526099,0.659913003,1.31257617,-1.43745148,0.321163177,2.46185875,0.321163237,-1.96282399,-0.0240627732,-1.72693443,1.88231838,0.787322283,1.34906375,0.790326536,0.557416379,2.52335215,-1.46472859,0.297646821,1.6839571,1.52668691,0.950944483,0.166745305,-1.59311378,-1.30805945,1.03717101,1.23771381,1.03716922,0.314628065,1.46218896,-1.13775074,0.805230141,-1.06807327,-1.48225081,-1.46886921,1.86816084,1.19691992,-0.178612232,1.42456722,-0.38378939,-1.63249755,-1.20948029,-1.03119504,-1.46895361,-2.12441444,-1.78794122,-1.64844561,1.02492654,-0.692863405,1.23512101,0.00711815152,0.000222051283,0.99145484,0.00109073275,0.000114229631,0.000332834577,0.00031216917,0.998352408,0.000747198472,0.000255391293,2,0.96484375
H,93,2499,-1.27743649,-1.5972352,-0.71074754,-1.03017139,-1.2084105,-0.463114172,-1.20841038,-0.841836274,0.347639501,-0.0861149132,-1.1521529,0.92436552,-0.293245614,-0.700403571,-0.169760734,-0.480065376,0.263761461,-0.336731285,0.739318728,-1.69237125,0.207931042,0.789867043,1.18323994,-1.43745148,0.326418728,2.40018034,0.326418996,-1.85142577,-0.0597998351,-1.72472608,1.73396599,0.260443926,1.46063793,1.35855901,0.557416379,2.4534409,-1.96907473,1.27958155,0.891702533,1.49823773,0.850315213,0.14723587,-1.73924601,-1.46779549,0.97241056,1.0829159,0.972409308,0.502557814,1.18401396,-0.814691722,0.17594181,-0.876203299,-1.33312452,-1.30117118,2.01433182,1.0426414,-0.0794436932,1.28778648,-0.486133486,-1.4334898,-1.37314224,-1.07695925,-1.58064854,-2.06242323,-1.76103652,-1.60036182,0.525117934,-0.612926006,0.556964576,0.00123128493,7.87162644e-05,0.998378634,0.000297767285,1.35362316e-05,0.00027069397,0.000268440432,0.998612165,0.000637758523,0.000210961894,2,0.953125
H,94,2524,-1.40237927,-1.55415618,-0.871970832,-0.422490805,-1.31149817,-0.596635401,-1.31149793,0.0497201607,-0.35494253,0.267144263,-1.31674814,0.770177543,0.314557552,-0.700403571,-0.169760734,-0.612947762,0.115796648,-0.142666206,0.516383231,-0.601879537,0.191405728,1.08127177,1.31257617,-1.51238501,0.273136288,2.08973622,0.273136079,-1.40583277,-0.447146386,-1.23642218,0.868301451,0.385983318,1.65437019,1.92679155,0.557416379,2.09057474,-1.97141612,1.40710986,0.890375018,1.52691102,1.00571108,0.413068533,-1.15471733,-1.38792753,1.10832083,1.03725266,1.10831916,0.502557814,1.18007421,-0.947946548,-0.119578898,-0.316641659,-1.11067784,-0.965775311,1.13730538,0.997466266,-0.514962196,1.57047164,-0.235141069,-1.43144333,-1.09977317,-1.20052004,-1.42568743,-2.05506539,-1.98906827,-1.59031272,0.2279872,-0.710317671,0.168072611,0.000399640354,3.16176956e-05,0.999429762,0.00013178552,7.168509e-06,0.000265276147,0.000265801093,0.998627782,0.000633558899,0.000207561592,2,0.98828125
H,95,2549,-1.29183078,-1.5327729,-0.549524248,-1.13145149,-1.1858325,-0.569482982,-1.1858325,-0.306902409,-0.0654194877,0.192888707,-1.67329669,0.962110341,0.0823479965,-0.700403571,-0.169760734,-0.585999668,0.18397826,-0.062720567,0.451341152,-1.17176676,0.036234837,1.27924693,1.70058465,-0.987850428,0.0380621515,1.80555046,0.0380617902,-1.07163799,-0.530766606,-1.29796898,0.779995143,0.277950436,1.89871073,2.30561328,0.557416379,1.75722253,-2.17710733,1.7754041,0.833924055,1.56966424,1.24588561,0.640084863,-1.44698167,-1.62753165,1.35265434,1.13113832,1.35265267,-0.249161214,1.34998298,-1.02518749,-0.132354856,-0.110123158,-1.24483883,-1.30117118,0.844963133,1.09077477,-0.762557328,1.75590622,0.0201172754,-1.65461242,-1.05024958,-1.03495276,-1.38003123,-1.54622328,-1.99504745,-1.29026115,-0.0231350604,-0.904348373,-0.178084388,0.000884619833,6.38299898e-05,0.998864889,0.000169307168,1.73573681e-05,0.000292002253,0.000278988649,0.998543024,0.000666300824,0.000219720197,2,0.98046875
H,96,2574,-1.05317104,-1.55754495,-1.35564077,-1.13145149,-0.959135532,-0.453691363,-0.959135592,-0.663524985,0.406252891,0.0884026885,-1.18647921,0.566696763,-0.70509243,-0.700403571,-0.169760734,-0.470753998,0.447237849,0.0244153235,-0.165809706,-1.76631463,-0.194262341,1.32117236,1.44191229,-0.613182843,-0.263927966,1.52617621,-0.263928384,-0.403248399,-0.694218278,-1.00569797,-0.42033121,0.837961614,2.03175735,2.4950242,0.344049603,1.47874904,-2.55114388,2.33894563,1.19682574,1.33632338,1.49809611,0.561182916,-1.59311378,-1.70739973,1.64530492,1.28656507,1.64530361,-0.437090963,1.5223273,-0.887236118,-0.244697407,-0.124237262,-1.62342155,-1.46886921,1.28347647,1.24504507,0.0104170488,1.51355469,-0.650029778,-1.88942087,-0.736529768,-0.725346565,-1.1274786,-2.42529655,-1.87385654,-1.93694878,-1.17559898,-1.12928498,-1.81609869,0.00286458759,0.000184841105,0.996519446,0.000408220396,2.28821809e-05,0.000399191253,0.000326025824,0.998218119,0.000793584913,0.000263128371,2,0.9765625
H,97,2599,-0.879974663,-1.3796308,-0.871970832,-1.33401167,-0.830848157,-0.425084591,-0.83084774,-0.841836274,0.63490063,-0.194316387,-0.42371881,0.262517005,-0.749111056,-0.700403571,-0.169760734,-0.441815138,0.672706127,-0.336763561,-0.0984360725,-1.70963991,-0.28441903,2.11568403,2.34726548,0.136152297,-0.41209054,1.19139266,-0.412090927,-0.29185015,-0.88196522,-1.55421567,0.465357333,0.801565886,2.66723585,2.87384582,0.344049603,1.14839518,-2.89423108,2.1432817,2.2667315,1.96865249,1.50761449,1.09400094,-1.00858521,-1.30805945,1.59841406,1.10346556,1.59841251,-0.437090963,1.34486997,-0.975143433,-0.494538993,0.493578643,-1.18577814,-1.30117118,-0.0320634283,1.06336868,0.0868095607,1.18675232,-0.253608286,-1.80101204,-0.862530529,-0.537582457,-1.1780858,-2.30322123,-1.70805371,-1.88206267,-0.429804325,-1.16954398,-0.750564337,0.0127653806,0.000880736043,0.982814193,0.00298797246,0.000551654841,0.0010957761,0.000578479026,0.996276438,0.00149917591,0.000550129451,2,0.9921875
H,98,2624,-0.952954531,-1.26329625,-0.549524248,-0.523770869,-0.91381228,-0.441256821,-0.913812339,-0.306902409,-0.250621885,0.407539636,-0.771274328,0.103867851,-0.333701134,-0.700403571,-0.169760734,-0.457685798,0.582785785,-0.352074236,-0.32758376,-0.359765291,-0.096502617,1.66852176,2.08859324,-0.688116372,-0.253581375,1.41173744,-0.253581852,-0.960239708,-0.616221607,-1.17157531,-0.867786229,1.61616027,2.18709183,2.68443489,0.344049603,1.40000582,-2.92763805,2.67265177,1.40709293,1.25472736,1.20034087,0.917539239,-0.424056619,-1.1483233,1.2609812,0.932126164,1.26097989,0.126698315,1.09202087,-0.81479001,-1.05173934,0.369926721,-0.959003627,-0.965775311,1.42964756,0.893320918,-0.646295965,1.69593811,0.0317015797,-1.75509024,-1.45788717,-0.666847646,-1.60946715,-2.30630732,-1.61840785,-1.83907855,-0.159651861,-0.929533482,-0.360325515,0.0021543873,0.000116596537,0.997008383,0.00062209554,9.85258375e-05,0.000353169453,0.00031050932,0.998342514,0.000746143633,0.000247641787,2,0.9765625
H,99,2649,-0.966900468,-1.27107263,0.0953690112,-0.928891242,-0.960966051,-0.419648051,-0.960965991,-0.663524985,0.0265423674,0.118756242,-0.865479767,0.150185227,-0.160314307,-0.700403571,-0.169760734,-0.435114533,0.228422806,0.144162446,-0.104919665,-0.903278291,0.0264624208,1.26196432,1.95925701,-0.837983429,-0.10960152,1.62902367,-0.109601773,-0.960239708,-0.148710415,-1.36429405,-0.279964209,1.60123658,1.71913826,1.54796994,0.557416379,1.62124372,-2.30902743,1.88676894,1.50610614,1.07723105,0.94775039,0.866230905,0.0143398419,-0.988587201,0.958319783,0.813385069,0.958318174,-0.249161214,0.88548696,-0.79690057,-0.786862493,0.637067974,-0.668615699,-0.965775311,3.76838493,0.776021838,-0.510288417,0.871502042,1.1384058,-1.52483392,-1.17009008,-0.72072053,-1.39478517,-1.88985181,-1.49350643,-1.52617002,0.457392424,-0.73831296,0.465580642,0.00270067505,0.000274504564,0.995903552,0.000801788119,0.000319429673,0.000340170343,0.000311896147,0.998358548,0.000737192982,0.000252169615,2,0.98046875
H,100,2674,-0.920511901,-1.30910552,-0.0658542961,-1.13145149,-0.889348626,-0.365660191,-0.889348388,-0.841836274,0.392036706,-0.0561040342,-0.387368113,-0.0154436715,-0.619271815,-0.700403571,-0.169760734,-0.380857974,0.461870521,-0.0939373374,-0.18556039,-1.25703704,-0.0095123481,1.81520128,2.47660184,-0.388382316,-0.163511336,1.70469284,-0.163511246,-0.626044929,-0.649160743,-0.976693749,-0.637719035,1.93729126,2.03273916,1.35855901,0.557416379,1.69075608,-2.14734125,1.32868683,2.08447051,1.39483678,0.978189826,0.964194059,-0.131792307,-1.06845522,0.964742899,0.895150661,0.964741468,-0.812950492,0.728376031,-0.631376266,-0.961195529,0.278519452,-0.631905913,-0.965775311,1.57581866,0.857454598,-0.558879972,1.00900888,0.728833258,-1.28164399,-1.09265983,-0.667056978,-1.33098352,-2.36965013,-1.46520519,-1.86659229,0.510012984,-0.769701302,0.535841703,0.00388360606,0.000348328613,0.993834972,0.00140708161,0.000525986601,0.000364107342,0.000329234492,0.998251855,0.000785709068,0.000269029755,2,0.984375
H,101,2699,-0.869194508,-1.14604306,0.256592333,-0.928891242,-0.854227126,-0.34807542,-0.854227066,-0.12859112,-0.0746002495,0.298361152,-0.767265379,0.0810924247,-0.422467619,-0.700403571,-0.169760734,-0.363455296,0.531502783,-0.302969575,-0.181524351,-0.884521067,0.0344913714,2.19711971,2.60593796,-0.388382316,-0.0615163743,1.69652247,-0.0615167096,-0.403248399,-0.842702031,-0.976502895,-0.826227009,1.95761824,2.32490015,1.73738074,0.770783186,1.67553985,-2.48625278,1.78083777,2.20954967,1.35185909,0.822219491,0.963949919,-0.131792307,-0.429510802,0.830323279,0.748188436,0.83032161,-0.437090963,0.417983592,-0.45376271,-1.01831675,0.582060635,-0.323082954,-0.630379319,1.72198975,0.712588847,-0.552651465,0.75839293,0.817070425,-0.966276228,-1.27063251,-0.636396766,-1.45089364,-2.67318177,-1.3274194,-2.06816387,0.557728887,-0.660944104,0.584190905,0.00156557176,0.000231960978,0.997134447,0.000817247434,0.000250809622,0.000339415885,0.000322366657,0.998324573,0.00075772719,0.000255899067,2,0.98828125
H,102,2724,-0.862210989,-0.948122323,0.901485562,-0.321210712,-0.857013404,-0.433591634,-0.857012928,0.406342715,-0.767960787,0.810095727,-1.02117324,0.0182583537,-0.132935256,-0.700403571,-0.169760734,-0.449773103,0.699148595,-0.655648947,-0.254861921,-0.0513219982,0.167042226,2.73939061,3.25261879,-0.0886482522,0.047691308,1.46407938,0.0476910993,-0.403248399,-1.0038619,-1.1697073,-0.268552631,1.19362986,2.56502652,2.68443489,0.770783186,1.44532824,-2.78161979,2.07936072,2.39880228,1.49446058,0.497094482,1.0279566,0.452736288,-0.189906612,0.412661761,0.357478499,0.412660271,-0.0612314492,-0.290011585,-0.273311704,-1.5864619,0.868078232,0.585964799,0.543506503,1.72198975,0.325060308,-1.01363635,0.480419904,1.49410248,-0.25876689,-1.90566099,-0.674057722,-1.93000305,-2.09220529,-1.12758684,-1.643888,1.27430391,-0.41005528,1.43676376,0.00052883313,0.00028192802,0.997917354,0.000968035427,0.000303907145,0.000372316397,0.000387013424,0.998072743,0.000869729556,0.000298171566,2,0.99609375
H,103,2749,-1.06575322,-0.9606511,1.22393215,0.083909668,-1.08794129,-0.524307966,-1.08794117,0.762965322,-0.946909785,0.8567276,-1.30027199,0.137211815,0.216801718,-0.700403571,0.0416170694,-0.540191174,0.458934247,-0.456160367,-0.157212049,0.295324206,0.30523935,2.40429878,2.86461043,-0.388382316,0.160052672,1.66281426,0.16005215,-0.180451885,-0.864857435,-0.888392627,-0.574852288,1.04000902,2.16757965,2.4950242,1.1975168,1.63715219,-2.64278746,2.31554055,1.59952676,1.16550457,0.386526316,0.728360593,-0.277924448,-0.0301704947,0.209407225,0.323036432,0.209405616,0.314628065,-0.187032104,-0.394615442,-0.850925148,0.631974161,0.527896583,0.375808537,0.991134226,0.293503046,-1.02690017,0.450818628,1.27989471,-0.151480123,-1.76519465,-0.903000116,-1.83031416,-2.18310785,-1.25932229,-1.66592693,0.767939091,-0.287599593,0.808571398,7.38449089e-05,8.26463947e-05,0.999621034,0.000187034326,3.53418109e-05,0.000282353634,0.000292139157,0.998523533,0.000678380311,0.000223672818,2,0.99609375
H,104,2774,-0.992221534,-0.895086765,1.22393215,0.083909668,-1.00446248,-0.48821491,-1.00446224,1.47621047,-0.512905419,0.464130282,-1.29346931,0.205492571,0.23632364,-0.491613209,0.0416170694,-0.504187703,0.140436754,-0.0232123584,0.131021902,-0.371537805,0.187533721,2.59672022,2.99394655,-0.238515273,0.0613092482,1.56066537,0.0613087118,0.376539409,-0.920993865,-1.04848802,-0.648669839,1.11341882,2.40218568,2.68443489,2.69108438,1.52008963,-3.11125827,2.79119587,2.12770176,1.19083703,0.598664284,1.14418721,0.160471991,0.0496975631,0.376158774,0.453745753,0.376157463,-0.0612314492,-0.242001653,-0.429061264,-1.06193089,0.341209799,0.616272926,0.375808537,-0.470576704,0.421036899,-1.06395626,0.439551741,1.63548148,-0.242058679,-1.86876595,-0.796878338,-1.90517867,-0.999257147,-1.31572425,-0.943419576,-0.456146866,-0.466728091,-0.707054436,6.66293708e-05,0.000117771757,0.999675274,0.000112077949,2.84039779e-05,0.000305060763,0.000326119683,0.998389363,0.000740943244,0.000238474124,2,0.99609375
H,105,2799,-1.04509175,-0.874150932,1.86882544,0.286469847,-1.09365106,-0.500833511,-1.0936507,1.47621047,-1.06151688,0.712726295,-1.20637953,0.259839177,0.655512035,-0.491613209,-0.169760734,-0.516552508,-0.0407085791,-0.334712923,0.504267931,0.736095428,0.0965494215,2.68834615,2.99394655,-0.388382316,0.0095535107,1.53371215,0.00955348648,0.376539409,-1.07483244,-1.06119502,-1.217641,1.71005392,2.66428185,2.68443489,2.47771764,1.52518272,-3.53270149,3.01933622,2.47597814,1.33957887,0.871895969,1.49566293,0.306604147,0.0496975631,0.655018806,0.673636496,0.655017436,-0.0612314492,-0.114420936,-0.44420287,-0.828591526,0.544583738,0.478429615,0.0404125936,1.86816084,0.637437463,-0.904459119,0.475448728,1.27634716,-0.308556139,-2.26574159,-0.815645754,-2.19312143,-1.36018133,-1.52862978,-1.16832972,-0.334914714,-0.66722858,-0.577948213,7.54196881e-05,9.12467731e-05,0.999668121,0.000129856868,3.53223804e-05,0.000295924692,0.000311868294,0.998429358,0.000726459024,0.000236272652,2,0.99609375
H,106,2824,-1.04400384,-1.05265129,1.54637873,0.083909668,-1.1611141,-0.450477004,-1.16111398,1.1195879,-0.586280704,0.529784024,-0.968641281,-0.0505463704,0.139556125,-0.282822847,-0.169760734,-0.467690885,0.150665388,-0.132537231,0.155964166,-0.0288028922,0.164544016,1.99532723,2.47660184,-0.912916899,0.148561209,1.79979575,0.14856112,0.0423446298,-0.961394429,-0.694863319,-1.84973896,1.74981236,2.28983378,2.4950242,2.47771764,1.79354525,-3.14763808,2.88035846,1.6484822,1.14337051,0.711732924,0.936813295,-0.131792307,-0.349642724,0.574564517,0.668238461,0.574563026,-0.0612314492,0.19344312,-0.49447608,-0.425726771,0.510130703,0.0527855903,-0.294983357,0.114107668,0.632375479,-0.601274252,0.569134593,0.83328557,-0.610029459,-1.92054641,-0.837009907,-1.944489,-0.265304208,-1.43483412,-0.474223614,0.2492906,-0.545286655,0.184727296,8.01538481e-05,0.000125452687,0.999618292,0.000137856172,3.82092403e-05,0.000287614588,0.000304466899,0.998489022,0.000687720603,0.000231169834,2,0.99609375
H,107,2849,-1.0939244,-0.933693409,1.86882544,0.083909668,-1.22913909,-0.451316804,-1.22913909,1.29789913,-0.347532868,-0.0113622695,-0.23748292,-0.240302518,0.58248961,0.761128962,-0.169760734,-0.468245715,-0.623694181,0.736143649,0.302799612,0.710100174,0.122813381,1.69946134,2.34726548,-1.13771749,0.0778659433,1.87990391,0.0778654218,-0.29185015,-0.554111779,-1.05400515,-1.13948548,1.78275299,2.05873561,2.4950242,2.47771764,1.88407552,-2.91328955,2.49825168,1.93965173,1.06192672,0.862684071,0.91504389,-0.862453043,-0.589246929,0.709773481,0.843529344,0.709771812,-0.812950492,0.440128982,-0.756121755,0.139405936,-0.32305187,-0.16123639,-0.630379319,1.42964756,0.808283448,-0.261352241,0.560218215,0.614762604,-0.856994629,-1.65093625,-0.870040596,-1.75429392,0.413934559,-1.5731703,-0.0263629686,0.841857076,-0.651927888,0.969114959,0.000231054728,0.000306377275,0.998958349,0.00029164771,0.000212578045,0.000296065089,0.00030376378,0.998456359,0.000688548258,0.00025516178,2,0.98828125
H,108,2874,-1.22278118,-1.02184856,2.19127202,-0.219930619,-1.34323657,-0.482484788,-1.34323657,1.1195879,0.176706165,-0.695275009,0.132790133,0.0596491471,0.965448976,1.38750005,-0.169760734,-0.499341667,-0.954783082,0.626077175,1.44154501,0.174493819,0.129228607,1.34244967,1.95925701,-1.88705266,0.13392505,2.11070371,0.133924529,-0.626044929,0.14211148,-1.70566869,-0.688105702,1.99761057,1.84046221,2.30561328,2.47771764,2.0865016,-2.96212816,2.77744222,1.87962389,0.74279952,0.977654159,0.928535879,-0.716320932,-0.988587201,0.967198551,1.04892302,0.967196882,-0.625020742,0.755879343,-1.03862953,0.283724993,-0.292305499,-0.383719176,-0.630379319,1.42964756,1.0104357,-0.464345425,0.828590989,0.68885392,-1.04184747,-1.82059205,-0.996625245,-1.87983119,0.291137338,-1.77362287,-0.132945776,1.28215539,-0.717159927,1.58395112,0.000199807779,0.000128054788,0.999494076,6.6472734e-05,0.000111535854,0.000274317164,0.0002774655,0.998568296,0.000636340817,0.000243545233,2,0.96484375
H,109,2899,-1.12688816,-1.2108947,0.901485562,-0.523770869,-1.19722378,-0.359076947,-1.19722366,0.228031442,0.60407573,-0.823256314,0.639853656,-0.126031831,0.325048536,0.969919324,-0.169760734,-0.376582414,-0.570549905,0.589565873,0.935701549,-0.59807086,0.129646257,1.05799222,1.57124853,-1.88705266,0.281387001,2.41274381,0.281386256,-1.51723099,0.0764077455,-1.68644881,-0.636694729,1.84267282,1.87785423,2.30561328,2.26435089,2.38248348,-2.98135805,2.79697108,1.74280941,0.868528605,0.880986691,0.757041812,-1.00858521,-0.908719122,0.952978432,1.12991488,0.952976644,-0.437090963,0.861514449,-0.915687084,0.477039576,-0.255724251,-0.685329318,-0.965775311,0.991134226,1.08958781,-0.0879826769,0.644444406,0.26705569,-0.968049467,-1.64072657,-0.903597653,-1.7496506,-0.473408669,-1.61768937,-0.603872657,1.45872843,-0.660241187,1.7882911,0.000298611703,9.88360698e-05,0.999464095,7.55876827e-05,6.29241695e-05,0.000273340818,0.000271996687,0.998586655,0.000625972229,0.000242114576,2,0.984375
H,110,2924,-0.992155671,-1.21088183,0.74026227,-0.827611148,-1.04527688,-0.304134369,-1.04527676,-0.306902409,0.817902982,-0.848513305,1.27259517,-0.558573544,-0.177297965,0.134757861,-0.169760734,-0.322019845,-0.043301709,0.441969275,-0.0155400746,-0.597299039,0.0388260446,1.04665685,1.57124853,-1.28758454,0.0626360402,2.15458536,0.0626355857,-0.960239708,-0.196589455,-1.43882143,-0.503559589,1.64949548,1.88825023,2.30561328,2.26435089,2.15610003,-2.84830689,2.25702548,2.30882645,1.06880832,0.946882904,1.23707592,-0.862453043,-0.828851104,1.07458568,1.10667706,1.07458401,-0.249161214,0.25060299,-0.40973103,-1.20125151,1.22860241,-0.0161211062,0.375808537,2.89135838,1.06684399,-0.621454597,0.569956005,1.07881403,-0.74783802,-1.3740499,-0.747781456,-1.54714143,-1.00420797,-1.51800227,-0.923404455,2.11981511,-0.733135998,2.66568089,0.000896391517,0.000361595448,0.997975886,0.000344180968,0.000422012556,0.000296281592,0.00027907794,0.998483479,0.000632734969,0.000308373332,2,0.98046875
H,111,2949,-0.838989019,-1.24952543,-0.227077603,-1.13145149,-0.82937026,-0.271718323,-0.829370022,-0.663524985,1.06266081,-0.771471977,1.05915332,-0.306718737,-0.767444551,-0.491613209,-0.169760734,-0.290018201,0.486732185,-0.0867459774,-0.326437503,-1.02351105,-0.0849357843,1.13676167,2.08859324,-0.987850428,-0.128945082,1.80147791,-0.128945947,-1.07163799,-0.333593041,-1.18305182,-0.638512254,1.823048,1.85116208,2.11620235,2.05098414,1.76621306,-2.83710265,2.27301478,2.51951671,0.970892787,1.0551331,1.33507025,-1.00858521,-0.908719122,1.16081011,1.0448581,1.16080868,-0.0612314492,0.616425276,-0.923497617,-0.766585767,0.933432937,-0.132021919,0.543506503,0.844963133,1.00701118,-0.711971164,0.14834021,2.52198815,-1.12856412,-0.951623261,-0.570003211,-1.21355033,-0.814605951,-1.42980719,-0.759932578,2.10989356,-0.842913687,2.66604304,0.0012942414,0.000352023548,0.996995926,0.000460175128,0.000897700666,0.000355253229,0.000301246881,0.998259842,0.000674889365,0.000408759079,2,0.96484375
H,112,2974,-0.778548837,-0.891969204,0.0953690112,-0.625050962,-0.721595228,-0.304923952,-0.72159493,-0.663524985,1.00966811,-0.968183279,0.820056438,0.0429764353,-0.117739901,-0.491613209,-0.169760734,-0.323044032,0.177436516,-0.106276467,0.584162354,-1.44229186,-0.185283154,1.37510419,1.82992089,-0.313448787,-0.291780412,1.45927107,-0.291780442,-0.403248399,-0.0519334376,-1.64996946,0.00935856346,1.99862731,1.83722782,2.11620235,2.05098414,1.43814778,-2.52977824,1.77410543,2.92488289,0.91396749,1.20264423,1.46704185,-0.424056619,-0.589246929,1.2018255,1.00786722,1.20182347,-0.625020742,0.396916419,-0.76033324,-1.06171834,1.08409262,0.0495506264,0.543506503,0.844963133,0.969919443,-0.981446922,0.304664701,2.46015739,-0.936500013,-0.790505648,-0.483927757,-1.08641469,-1.56537414,-1.45335102,-1.30741346,1.71375871,-0.965074539,2.17061257,0.00639446871,0.00113074912,0.983899057,0.00181461056,0.00676113553,0.000478720205,0.000394186936,0.997742057,0.000909446913,0.000475647073,2,0.97265625
H,113,2999,-0.789665759,-1.03093529,-0.388300896,-0.422490805,-0.743685007,-0.378292263,-0.743684709,-1.37677014,0.548945189,-0.369440168,-0.0609311201,0.00947020669,-0.314202249,-0.491613209,0.0416170694,-0.395954251,0.332884401,-0.137081996,0.254884303,-1.32291925,-0.150467142,1.48154008,2.08859324,0.0612187833,-0.254405677,1.26198399,-0.254406154,-0.626044929,-0.403740823,-1.49352252,0.576597929,1.37324584,1.98453283,2.11620235,2.05098414,1.24332583,-2.67001605,1.9208318,2.63916254,1.29686487,1.14163208,1.74262869,-0.131792307,-0.50937885,1.12942445,0.818213761,1.12942302,0.314628065,0.083478868,-0.663177192,-1.43266082,0.389419228,0.289542139,0.543506503,3.62221384,0.781261623,-1.41935754,0.738003671,2.33017278,-0.819045603,-1.22151554,-0.505294859,-1.41235971,-2.1202302,-1.43079734,-1.72340035,1.18232083,-0.917343199,1.44387496,0.00343483617,0.000741297205,0.992129087,0.00173516269,0.00195965171,0.000458643044,0.000397044001,0.997836888,0.000933414791,0.000374039286,2,0.96484375
H,114,3024,-0.772864223,-0.912284315,0.0953690112,-0.219930619,-0.744095385,-0.305479348,-0.744095206,-1.19845879,0.626101971,-0.645083964,0.389141202,-0.0869972557,-0.0214356203,-0.282822847,0.0416170694,-0.323307008,0.0209335145,-0.0876371264,0.619559348,-0.843018532,-0.186136827,1.60452926,1.95925701,0.286019325,-0.219050542,1.42488992,-0.219050363,-0.737443209,-0.733526647,-1.25559008,0.00384357013,1.72763503,2.24239945,2.11620235,2.05098414,1.43671525,-2.91320086,1.8685478,3.16733813,1.51656103,1.19826269,1.93688166,0.452736288,-0.429510802,1.17924535,0.996353388,1.1792438,-0.0612314492,0.13207747,-0.841264427,-1.20750022,0.708122134,0.409021765,1.21429849,3.62221384,0.957126081,-1.27301598,0.0528391823,3.44478726,-0.818733633,-0.762265384,-0.478798479,-1.06348264,-2.05669618,-1.44573462,-1.68194854,0.505759597,-0.962958574,0.540471554,0.00310018077,0.00124307314,0.991882384,0.00169376342,0.00208054017,0.00042762488,0.000386580854,0.997927904,0.000913887867,0.000344087806,2,0.984375
H,115,3049,-0.706568956,-0.709810257,0.579038918,-0.321210712,-0.708091438,-0.350521415,-0.708091319,-0.485213697,0.20341742,-0.26160863,-0.483741909,0.237191126,0.197206691,-0.0740324929,-0.381138533,-0.368465602,-0.1029879,0.123189591,0.62338376,-0.893198252,-0.306954354,1.51277673,1.95925701,0.360952854,-0.351177514,1.05959189,-0.351177722,-0.403248399,-0.931418538,-0.784694314,-0.651125789,2.4027853,2.10882592,2.11620235,1.83761728,1.06936622,-2.75083089,1.85192013,2.39465261,1.5057323,1.37280643,2.04988408,0.306604147,-0.908719122,1.34343481,0.942196846,1.3434329,0.126698315,0.266661376,-0.882875979,-1.86498904,1.1350733,0.285178185,1.21429849,3.62221384,0.903826118,-1.63789618,0.528574228,3.61433697,-1.22307396,-0.926059186,-0.381363779,-1.18357527,-1.45275283,-1.47716832,-1.21873283,0.400043607,-1.10622323,0.404553503,0.00994047802,0.00288158096,0.976228774,0.00383710023,0.00711208396,0.000902817119,0.000664736028,0.996035993,0.00164049119,0.000755972811,2,0.94921875
H,116,3074,-0.785532117,-0.736161888,1.06270885,0.286469847,-0.788732827,-0.407626241,-0.788732708,0.0497201607,0.0582955368,-0.148387447,-0.712716699,0.379381269,0.254801035,0.343548238,-0.381138533,-0.424925655,-0.347286969,0.413508624,0.702636242,-0.896354079,-0.205684021,1.49577069,1.82992089,0.0612187833,-0.1861929,1.10385954,-0.186193094,-0.848841429,-1.12816679,-0.420285195,-1.24501193,2.4315877,2.15174079,1.92679155,1.83761728,1.10305583,-2.70243621,1.81792092,2.19974422,1.48737144,1.25242448,2.01475024,0.745000601,-0.908719122,1.18658519,0.828298807,1.18658352,0.314628065,0.0391240567,-0.835506499,-1.27187049,0.357273698,0.45736742,0.878902495,4.06072712,0.790580571,-1.55073071,0.630146503,2.52510571,-0.558287382,-0.592633545,-0.482894897,-0.941526771,-1.42492604,-1.48639548,-1.19995224,0.503051043,-1.00066948,0.540851474,0.00645394251,0.00243305136,0.98147136,0.00388405286,0.00575756375,0.000669989851,0.000572971825,0.996789873,0.00137666368,0.000590550539,2,0.96875
H,117,3099,-0.956837952,-0.697567105,0.74026227,0.792870343,-0.971012712,-0.487433523,-0.971012473,0.228031442,-0.458732456,-0.020895239,-0.919395506,0.424427122,0.959517896,1.17870963,0.0416170694,-0.504347086,-0.574482739,0.417971551,0.897423983,-0.146437943,-0.0248877909,2.57746363,2.47660184,0.211085811,0.0196383391,1.29090238,0.0196382347,-0.29185015,-1.38270247,-0.865315259,0.210518464,1.40597212,2.68391919,2.11620235,1.62425041,1.2882129,-3.12820506,2.13942266,1.95470965,2.46551466,1.05071616,1.38309562,0.160471991,-0.908719122,0.976763308,0.717976749,0.976761639,-0.249161214,0.805474281,-1.3187443,-0.285208315,0.42171964,-0.141885698,0.0404125936,2.306674,0.681315064,-1.33910942,0.977719665,2.10451412,-1.10069275,-1.10140634,-0.694466889,-1.34642708,-1.46962118,-1.54089272,-1.23787582,0.928333521,-0.81745559,1.10221553,0.00241944264,0.000537820102,0.993269384,0.00142923184,0.00234413566,0.000453644752,0.000416308467,0.99774456,0.000988508691,0.00039704208,2,0.96484375
