#meta n_feat=69 n_class=5 win=150 hop=25 replay_n=75564 hops=400
#calib_windows 74
#calib_valid 69
CMEAN,0.456953257,42.0808334,35.4084663,66.1715088,0.396605551,335.878204,59.4908295,130.721161,0.871223569,-0.344807118,0.214627802,-0.194281518,232.044174,149.241913,212.491058,50797.7656,0.249217302,0.17725724,0.136057407,0.388882011,0.823883832,55.7997322,20.8514385,49.1830254,0.760144174,691.070496,114.021629,121.619881,1.03070927,-0.219495341,0.158372223,-0.326882929,255.805542,326.342438,438.48587,103959.828,0.297391176,0.156004682,0.0453617126,0.472560942,0.364484161,40.5497894,46.9018707,72.3777542,0.308764845,220.233353,46.314743,134.325821,0.653409541,-0.338702768,0.170710877,-0.172213718,239.10376,265.000366,188.356857,33649.7891,0.11658971,0.252409697,0.177906305,0.397462398,0.459527522,-0.606684983,0.180205792,0.220158517,0.253118187,0.0414066538,-0.0172438323,0.859803498,0.000872988254
CSTD,0.114446752,9.33492088,6.20257711,9.87360859,0.1037734,257.983276,15.5660086,5.60817003,0.146460742,0.257864505,0.109178528,0.143077925,13.5709248,18.7089577,18.4799442,38650.8594,0.160324663,0.107618339,0.0732349232,0.0227900203,0.100613616,7.83440351,7.73178864,13.3451633,0.099281691,364.998596,14.8922539,8.97680092,0.17409189,0.203156218,0.107936949,0.0982106924,20.6610813,20.6231594,18.3076744,55834.9648,0.154331714,0.120439917,0.0445174314,0.0464138202,0.0836203918,6.96950531,6.84312105,12.5206499,0.0758149773,189.328827,11.3722477,5.32113695,0.20382309,0.217728645,0.0978970975,0.0772650167,19.881443,23.2933636,26.7238197,28454.9727,0.121331528,0.12760374,0.0650480837,0.0680657327,0.2311766,0.365302563,0.0904081687,0.144442365,0.335490167,0.0324489102,0.186862871,0.322053105,0.0518708304
H,0,174,0.934166193,-3.06370401,-5.22500038,-2.34681249,1.08495629,0.826537848,1.08495653,-9.04415512,0.454397053,1.55347288,-0.633773446,0.0236073527,-3.91563654,-7.14186859,-11.4984684,2.03994226,-1.28429949,-1.58960247,-1.76974893,-15.0570211,-2.13770509,-3.73929024,0.148550555,-0.987850428,-2.33415866,0.265716165,-2.3341589,-2.51981544,0.81631285,-0.651797473,0.508183181,1.39861703,-1.24454463,-9.95234013,0.159516692,0.614409208,-0.809666336,-1.02302217,-0.490827322,-5.36021233,2.31477809,-4.22166824,-6.70773888,-2.50608039,2.72091818,1.53921735,2.72091603,-11.9008064,1.58847368,1.45289409,-0.106346913,0.212815106,-3.46073389,-10.8735523,-7.04827595,3.35993266,-0.704415798,-1.94225514,-2.64431,-5.40353632,1.47706759,1.45087492,1.04813766,5.14371729,-0.723554134,8.06359386,3.90762186,-2.39946127,4.65276957,0.503505111,8.6213106e-08,0.000970369496,0.495354384,0.000170021391,0.891262889,0.00979903992,0.0207205694,0.0202005729,0.0580169037,3,0.99609375
H,1,199,0.156994075,-0.715129197,-2.00053406,1.60311103,0.22812058,-0.567697823,0.228120774,-0.663524985,-1.17755771,1.97645748,-0.445792586,-0.982232809,-0.805356205,-1.71331906,-8.11642361,-0.583579302,0.501230121,-1.21004701,-1.18647242,-4.6034584,-0.168259621,-1.06310976,0.277886719,-0.538249314,-0.201464236,-0.395356655,-0.201464429,0.376539409,0.361374348,-0.616017282,1.28177631,-0.513492405,0.442970634,2.35936499,0.159516692,-0.402454317,0.637016833,-1.05997765,-0.344939917,0.958545148,-0.160001233,-1.46343625,-1.30084956,1.32758653,-0.49693653,-0.617773533,-0.49693802,1.06634712,-0.322383672,2.09042549,0.401972353,0.445571721,-0.563450515,-3.32714367,-6.90210485,-0.63962388,0.183618233,-1.61913455,-2.03205419,-2.27850604,0.40648514,0.209594592,0.353023738,2.06031656,0.145890772,1.38456094,-0.233547747,-0.0857647136,-0.349393606,0.00295864651,0.00251355814,0.00415536063,0.930181265,0.0601911545,0.00835667551,0.0182784349,0.00201712921,0.95426631,0.01708146,3,0.640625
H,2,224,0.141239673,-0.39275983,-2.00053406,1.50183094,0.226342037,-0.681241095,0.226342335,0.406342715,-1.41463864,1.98199022,-0.208990857,-1.83309996,-1.20182717,-2.13089967,12.3872232,-0.697584748,1.44261599,-1.07619536,-1.17461896,-0.0788838938,0.164954558,-0.990200877,-0.110121809,-0.238515273,0.152279228,-0.508764923,0.15227893,0.487937659,0.311625957,-0.513487816,1.49480379,-0.964662611,0.8973279,5.20052767,0.159516692,-0.514451683,0.449138582,-0.893798828,-0.477955699,1.59676313,-1.20039821,-1.02922201,1.32952917,1.48732257,-1.24368,-0.899704337,-1.24368131,1.44220662,-1.0221802,1.50524378,0.0982146561,-1.19987118,0.0427030884,-1.65016389,-4.85570955,-0.921470344,1.17336559,-0.893203974,-0.992370069,0.879723191,1.20278096,0.0877503753,1.25089347,-0.165841311,0.983259678,-0.520519614,-0.019639032,0.924748838,-0.106327966,0.00991116092,0.125676557,0.000471065723,0.859206617,0.00473460183,0.00820221379,0.023621209,0.00227775937,0.951439917,0.0144588575,3,0.99609375
H,3,249,0.243210256,-0.334288001,-1.67808735,1.80567122,0.331307858,-0.653175771,0.331307977,0.406342715,-1.60863268,2.36824942,-1.07186055,-1.69385481,-1.12522578,-3.17485142,-8.11642361,-0.669596374,1.49673271,-1.13034594,-1.35653973,0.607362688,0.118459754,-0.838255763,-0.110121809,0.0612187833,0.0917414427,-0.530239582,0.0917412415,0.376539409,0.112793267,-0.165651172,1.19576466,-1.09079468,0.746405244,4.63229513,0.159516692,-0.533295691,0.517614603,-0.964283824,-0.425634086,1.43758905,-1.27687883,-0.928253412,1.4756614,1.48732257,-1.29070997,-0.91346705,-1.2907114,1.63013637,-1.06123233,1.29003382,0.289624006,-1.71700823,0.826181948,1.36839974,-4.85570955,-0.933955014,0.854083419,-1.11130929,-0.971678495,1.5905118,1.18825722,0.169733688,1.29736578,-0.0619072057,1.12895775,-0.462828398,-0.0982670039,0.983532667,-0.164686471,0.0155928498,0.287571073,0.000504014257,0.689373136,0.00695894565,0.0125937453,0.0406319648,0.00334193069,0.922242284,0.0211899914,3,0.90234375
H,4,274,0.28856498,-0.426819831,-1.51686406,0.894150436,0.365080416,-0.651655912,0.365080982,0.228031442,-1.10532689,1.88997114,-0.846360803,-1.39378119,-0.243530318,-1.50452864,-8.11642361,-0.667988896,1.26051891,-1.15530598,-1.27071619,1.63632393,0.119315788,-0.980408013,-0.110121809,-0.388382316,0.119066775,-0.555388212,0.11906714,-0.403248399,0.220324919,-0.400271803,1.40866446,-0.96194005,0.84538275,4.63229513,0.159516692,-0.557799399,0.534493804,-1.03366816,-0.467658699,1.20254445,-1.40007997,-1.11587322,0.59886843,1.7269268,-1.42829549,-0.93732059,-1.42829657,1.06634712,-1.40328133,1.72208333,-0.307624191,-1.75292373,0.518502533,-0.811673939,-4.85570955,-0.958655715,0.773118854,-0.69579494,-0.929083645,1.08699656,1.20695722,0.198606074,1.35252607,0.106778115,1.2823056,-0.395952642,0.068811506,1.11052918,-0.0343148708,0.00318433996,0.393618047,0.000181652475,0.59992677,0.00308923936,0.0083827721,0.0415536091,0.00187891733,0.932625771,0.0155588975,3,0.890625
H,5,299,0.30832386,-0.289617866,-1.35564077,0.489030033,0.310110897,-0.66495955,0.310111254,1.1195879,-1.01239645,1.85782695,-0.745513737,-1.59068763,-0.284538478,-1.50452864,12.3872232,-0.679872751,1.33671486,-1.19698644,-1.25820673,1.53807437,0.0841786861,-0.915804982,-0.110121809,0.136152297,0.128927663,-0.605538368,0.128927499,-0.626044929,0.1377469,-0.218548939,1.16915298,-0.943623006,0.338535368,1.98054338,0.159516692,-0.605424821,0.723380446,-1.07006609,-0.387153119,0.744729638,-1.3125217,-1.2119031,-0.424056619,1.00811422,-1.36123478,-0.93079716,-1.36123633,0.502557814,-1.17326975,1.54298711,-0.374675006,-0.938600361,1.26511359,0.194513932,9.32288647,-0.951225698,0.593267798,-0.844880164,-0.829526842,1.34963202,1.1950233,0.222812936,1.34124899,-0.066367574,1.20910144,-0.462366998,-0.0577091835,1.00681281,-0.131394669,0.00724550616,0.232556254,0.000692393747,0.754197061,0.00530876964,0.00720556639,0.0324025154,0.00166355004,0.944060266,0.0146680567,3,0.99609375
H,6,324,0.298248351,-0.296149284,-0.71074754,0.489030033,0.251923472,-0.701356709,0.25192377,0.94127661,-0.569033027,1.40165329,-0.685693741,-1.04069412,-0.463401556,-1.50452864,12.3872232,-0.717348278,1.35096347,-1.24351048,-1.15071166,1.11628366,0.0912266001,-0.844160616,-0.110121809,0.0612187833,0.157818735,-0.671543717,0.157818496,-0.626044929,0.0106286779,-0.0655487254,0.778514922,-0.4894104,0.092075251,-0.671208382,0.159516692,-0.672877967,0.779629409,-1.06961715,-0.427378595,0.50870645,-1.31362617,-1.14344001,0.745000601,1.16785038,-1.38673437,-0.94320631,-1.38673556,0.878417373,-1.12345183,1.73579133,0.0229935236,-1.50957298,-0.0642833412,-2.82404971,-4.85570955,-0.964520693,1.2603575,-0.823833525,-1.00185621,0.321908027,1.02981663,0.214061573,1.16344941,0.00665651355,1.20319164,-0.423919201,-0.213226497,1.0105828,-0.250295371,0.00478479639,0.375988454,0.00155391009,0.607123852,0.0105490079,0.00749375764,0.0761004016,0.00160001114,0.89582026,0.0189855564,3,0.86328125
H,7,349,0.226717353,-0.0837131888,-0.549524248,0.69159025,0.190713972,-0.744557798,0.190714166,1.29789913,-0.63002187,1.31508553,-1.13722312,-0.44849667,-0.258690238,0.165794224,12.3872232,-0.758662701,1.26691246,-1.25942504,-0.954081357,1.09911883,0.115309305,-0.456033468,-0.110121809,0.360952854,0.101421624,-0.714081645,0.101421781,-0.29185015,-0.0872445852,0.0259964671,0.674358189,-0.780578315,-0.0430022739,-0.481797546,-20.5370636,-0.713259459,0.775445759,-0.999826074,-0.387643725,0.519007623,-1.22268426,-0.770566046,1.03726494,0.848378122,-1.33216262,-0.939281046,-1.33216393,0.502557814,-1.35026586,1.65414751,-0.310687929,-1.2402606,0.285353959,-1.8178618,-4.85570955,-0.95974493,1.00041628,-0.786377311,-0.885379553,0.621274412,1.02215052,0.160092577,1.11194682,-0.356662691,1.06537032,-0.617906749,-0.364150167,0.928227961,-0.37709111,0.00402050465,0.28189525,0.00313027645,0.695970058,0.0149839194,0.00909658894,0.0849325433,0.00230099144,0.880404651,0.0232652016,3,0.94140625
H,8,374,0.0273540746,-0.261729687,-0.71074754,0.489030033,-0.0302057043,-0.835534692,-0.0302053466,1.29789913,-0.494845867,1.08110678,-1.58798671,0.240703166,-0.0205344353,1.62732673,12.3872232,-0.850690186,1.11405969,-1.19840539,-0.870915949,1.67789674,0.0897058845,-0.524850309,-0.368794173,0.510819852,0.00868539233,-0.813536525,0.0086846156,-0.29185015,-0.153159916,0.294242829,-0.170353636,-0.133992076,-0.103377685,-1.61826265,0.159516692,-0.809105515,0.82860446,-1.07417464,-0.234290764,0.508502901,-0.680909693,-0.412402958,0.0143398419,0.44903785,-0.777608156,-0.879203796,-0.777609348,0.878417373,-0.565586627,0.886710763,-0.745481908,-0.277553797,0.875511527,0.194513932,-4.85570955,-0.900026977,0.728494048,-0.688441992,-1.21038187,1.1408267,1.14171374,0.0360488892,1.07326496,-0.126372039,0.446108967,-0.395627648,-0.341526508,0.423831105,-0.417147726,0.0054095313,0.0431137756,0.00735938363,0.897047818,0.0470694751,0.00994031876,0.0432299823,0.00259848638,0.90697217,0.0372590609,3,0.83203125
H,9,399,0.0451180115,-0.0241421107,-0.388300896,0.489030033,0.0104610566,-0.871930122,0.0104613714,0.94127661,-0.758639634,0.95091635,-0.662485659,-0.192777872,0.118367299,2.46248817,12.3872232,-0.885499418,1.00733757,-1.11917484,-0.816311955,2.17356157,0.046423126,-0.318615019,-0.110121809,0.735620439,-0.0914448649,-0.916769028,-0.0914451256,-0.180451885,-0.198496819,0.348297209,-0.504534662,0.211000532,0.214882135,-0.481797546,0.159516692,-0.910806775,0.681981504,-0.979405105,-0.266584098,0.604266346,-0.578127086,-0.171063825,-0.424056619,0.768510103,-0.672353029,-0.889004469,-0.672354579,0.878417373,-0.662256896,1.02256656,-0.316030264,-0.815245211,0.798454106,0.362211913,-4.85570955,-0.910857439,0.702821791,-0.812069774,-0.790820241,1.46090007,1.22263861,0.0624687523,1.14994168,-0.43792811,0.377094388,-0.569634974,-0.423171908,0.321969151,-0.503226638,0.00423003128,0.0261553489,0.00539850537,0.907247603,0.0569684729,0.00936524197,0.0280452371,0.0027162733,0.926314116,0.0335590728,3,0.8671875
H,10,424,-0.12998946,0.000437253417,-0.227077603,0.489030033,-0.182792783,-0.938026428,-0.182792425,0.762965322,-0.944763005,0.80784899,-0.548181653,0.00173144671,-0.392551422,1.62732673,12.3872232,-0.95256269,0.880242467,-0.884263575,-0.718861997,1.16157031,0.0815122426,0.181678131,0.0192143731,1.41002202,-0.101474456,-0.98265332,-0.10147506,0.487937659,-0.521503627,0.349813759,0.364315122,-0.412827373,0.499680728,1.60172176,0.159516692,-0.97446239,0.439519614,-0.871807516,-0.282023162,1.21489084,-0.352989793,0.53110975,1.03726494,0.848378122,-0.478414387,-0.878504992,-0.478415757,1.25427687,-0.725322127,0.575861037,0.453670859,-0.912388682,0.872550607,0.529909909,-4.85570955,-0.899945319,0.523283064,-0.856964707,-0.634435892,1.58344412,0.956534147,-0.070536457,0.776148498,-0.0944571048,0.0725276545,-0.333623409,-0.51953876,0.155561537,-0.631147563,0.00477309478,0.0287794471,0.00610464532,0.871898234,0.0884446129,0.0109072104,0.0281943064,0.00316739478,0.913707316,0.0440238304,3,0.75390625
H,11,449,-0.312180191,0.110522136,0.901485562,1.09671056,-0.375927746,-0.998834789,-0.375927597,0.94127661,-1.55694389,1.13485515,-1.05530262,0.164906323,-0.0906773582,3.08885932,-8.3278017,-1.01199436,0.610082388,-0.707108319,-0.415259272,1.22065187,0.104817115,0.707369328,0.277886719,1.63482261,-0.150456533,-1.05343902,-0.150456652,0.933530688,-1.13367045,1.15963709,-0.299480528,-0.601053476,0.283594787,0.465256661,0.159516692,-1.04330409,0.447630227,-0.736510515,-0.329220802,0.852883697,-0.108854234,1.12687755,1.62179351,1.24771845,-0.191184625,-0.869249821,-0.191186234,2.00599599,-0.822033644,0.553706646,0.704399526,-0.844915986,0.406091481,-0.979371905,-4.85570955,-0.890726089,0.687301219,-0.937897742,-0.0590774566,0.781921506,0.711452007,-0.210499182,0.43269375,0.183130667,-0.247825161,-0.138375357,-0.252289057,-0.0193982981,-0.384926707,0.00358174532,0.020383453,0.0255086012,0.824326038,0.126200229,0.0120586632,0.0304520968,0.00385394134,0.896575153,0.0570602193,3,0.90234375
H,12,474,-0.196215779,0.549034178,1.38515544,1.60311103,-0.29222092,-0.991029501,-0.292220682,0.94127661,-2.33354664,1.1327045,-0.381251842,-0.0114472322,-0.163977519,2.88006902,-8.3278017,-1.00511825,0.31374231,-0.613983214,0.119481251,0.189033389,-0.0241869688,0.708074391,0.407222897,2.08442378,-0.372489065,-1.10895526,-0.372489661,1.15632725,-1.3346554,1.36977804,-0.507948637,-0.600824356,-0.0796672404,-2.7547276,0.159516692,-1.09668493,0.514433026,-0.630414188,-0.279399008,0.294996887,0.0583915375,1.34297931,0.745000601,1.32758653,0.0287861861,-0.857019901,0.0287850406,1.81806612,-0.800110638,0.67498076,0.833817124,-1.03018761,1.05646086,0.697607875,9.32288647,-0.878992915,0.578092337,-1.04251587,-0.23638016,1.76748478,0.354323745,-0.0826640278,0.144271582,-0.14875941,-0.270409107,-0.293449759,-0.729062915,-0.187927067,-0.914597631,0.0117211575,0.00889993552,0.0814677551,0.701856732,0.196054399,0.0205830522,0.0429584756,0.00665370375,0.850358069,0.0794466808,3,0.9609375
H,13,499,-0.100092031,0.816423655,1.38515544,1.70439112,-0.19020766,-1.01036775,-0.190207615,0.584654033,-2.47792006,1.05251884,0.132998824,-0.276785791,-0.314681798,3.29764962,-8.3278017,-1.02388799,0.411958277,-0.759262025,-0.341971278,1.37148356,-0.155146599,1.02842724,0.665895283,2.45909119,-0.448956788,-1.2150743,-0.448956996,0.822132468,-1.75956035,1.7430501,-0.334874332,-0.863243163,-0.0617638417,-2.56531692,0.159516692,-1.20107996,0.511184752,-0.745477498,-0.2280256,0.263421595,0.245341599,1.57990301,0.306604147,1.48732257,0.23848705,-0.866479754,0.2384855,1.06634712,-0.754059851,0.576607466,1.36700714,-1.52555513,0.95255059,0.697607875,9.32288647,-0.888645589,0.659888864,-1.03997242,-0.526485324,1.73006558,0.121465005,0.0300483294,-0.0511673503,-0.308919728,-0.319436967,-0.34821108,-0.783612907,-0.366849214,-0.99873656,0.00832659937,0.00618495978,0.0877711326,0.72704339,0.170673892,0.0166072603,0.0328668654,0.00495010428,0.881350636,0.0642251596,3,0.91796875
H,14,524,0.0504729487,1.36154914,2.83616519,1.80567122,-0.0653245971,-0.993098319,-0.0653245077,0.762965322,-2.69675803,1.03828633,0.175256833,-0.359104127,-0.406396955,2.88006902,-8.3278017,-1.00599563,0.512925208,-0.879391253,-0.18536669,1.23780084,-0.114295691,1.54009664,1.18323994,2.38415766,-0.423826367,-1.220523,-0.423826337,1.15632725,-1.82652688,1.56446779,0.322754562,-1.24364293,-0.191939756,-2.94413853,0.159516692,-1.20713782,0.599378228,-0.722808361,-0.219519541,0.448702186,-0.11530187,1.14948547,0.745000601,1.40745461,-0.148337901,-0.915763438,-0.148339242,0.126698315,-1.08075297,0.865700841,1.69791162,-1.65458858,0.616187751,-0.14088203,-4.85570955,-0.93678087,0.915397763,-1.20040083,-0.374422133,1.49737012,-0.174147233,0.120050713,-0.249940604,-0.0743530393,0.0368137434,-0.216367304,-0.719768405,-0.0978235975,-0.860124469,0.00889123604,0.0152903693,0.142356619,0.623655558,0.209806234,0.0149440635,0.0581105277,0.00342142046,0.869547009,0.0539769717,3,0.9375
H,15,549,-0.00920187496,1.25647223,2.83616519,2.10951161,-0.161670506,-0.999233603,-0.161670431,1.29789913,-2.75571036,1.21247602,-0.026795974,-0.282627732,-0.529202163,2.46248817,-8.3278017,-1.01349962,0.412393987,-0.606842041,-0.0257728193,-0.628283143,-0.166341394,1.24067533,1.18323994,2.00949025,-0.461488068,-1.22272718,-0.461488545,1.49052203,-1.80208468,1.69030142,0.0692730322,-1.28984797,-0.574529827,-6.35353374,0.159516692,-1.20850098,0.76175344,-0.742127717,-0.247294635,-0.111481436,0.126440093,1.43839455,0.891132772,1.32758653,0.0662695542,-0.884061813,0.0662680194,-0.249161214,-1.25523877,1.05033839,0.408571213,-0.973570287,0.838289857,-0.308580011,9.32288647,-0.905185997,0.560318828,-0.963251472,-0.097628504,1.44578171,-0.463411659,0.097048834,-0.558920562,-0.0582173578,-0.172651112,-0.160249114,-0.705871403,-0.289937675,-0.887264073,0.0121590989,0.00811604876,0.379219532,0.394266307,0.206239045,0.020547552,0.0688740313,0.00500778807,0.833162963,0.0724075809,3,0.98046875
H,16,574,0.0663622394,1.13698971,2.51371861,1.90695131,-0.0708919913,-0.982712567,-0.0708916709,0.584654033,-2.61916471,1.30531299,0.166965276,-0.335378796,-1.6315819,0.583374918,-8.3278017,-0.994274437,0.910051346,-0.882178783,-0.377200902,-1.41139698,-0.210433975,1.18300021,0.92456764,2.00949025,-0.478977114,-1.21971035,-0.478977144,1.26772547,-1.7086798,1.47400689,0.0468839332,-0.731720924,0.334179521,-1.23944092,0.159516692,-1.20524895,0.405110121,-0.742858291,-0.0806538388,0.732546389,0.113373391,1.32267785,0.306604147,1.24771845,0.116044536,-0.881331801,0.116043501,-0.249161214,-1.22658074,1.25729764,0.40134415,-1.3059237,0.706276417,1.03300381,-4.85570955,-0.902511537,1.03144944,-1.27017331,-0.821195245,1.92647469,-0.319920212,0.163577303,-0.402924776,0.170622826,-0.10794273,0.0345697887,-0.333074629,-0.297992021,-0.47681269,0.0171791464,0.0258621443,0.0461425707,0.640857458,0.269958675,0.0180351492,0.0641547367,0.00396925258,0.848939657,0.0649012551,3,0.953125
H,17,599,0.15455462,1.22539008,1.54637873,1.50183094,0.045163814,-0.969058454,0.045163922,0.228031442,-2.39153743,1.00764596,0.535721838,-0.481860012,-0.874922276,1.209746,-8.3278017,-0.983492732,0.624831259,-0.677025497,-0.234727457,-0.665566742,-0.226333112,0.849403262,1.05390382,1.63482261,-0.497898638,-1.22306633,-0.497898638,1.26772547,-1.50217211,1.35341823,0.512674749,-1.14895201,0.426535428,1.03348923,0.159516692,-1.20939398,0.534184813,-0.971032619,-0.00561419921,0.948049366,0.00142453145,1.29435515,0.452736288,1.32758653,-0.0658670217,-0.895552754,-0.0658685118,-0.437090963,-1.49068773,1.47655118,-0.0931890532,-0.983333707,0.58700937,0.529909909,-4.85570955,-0.917058587,0.880422056,-1.04006076,-0.940416634,1.66401744,-0.354207695,0.227878228,-0.404946804,-0.0376906358,0.031690523,-0.130946457,-0.580240607,-0.225469217,-0.724481523,0.0122131724,0.0266248845,0.0143593298,0.798620522,0.148182169,0.0162713118,0.0539856441,0.00358780404,0.883888543,0.0422667116,3,0.8828125
H,18,624,0.0173751563,0.654587984,0.74026227,1.19799066,-0.0435819924,-0.980376482,-0.0435817763,0.584654033,-1.84151983,1.24240994,0.372685283,-0.843676269,-0.620764375,1.41853642,-8.3278017,-0.993886292,0.986656427,-1.06324041,-0.565643549,-0.709465921,-0.057291504,1.11107779,1.18323994,1.48495555,-0.417672068,-1.17107213,-0.417672008,1.04492903,-1.6405828,1.65192115,-0.428409189,-0.535445094,0.341761261,-0.671208382,0.159516692,-1.1589551,0.509424627,-0.851176977,-0.17294687,0.993137658,-0.215230063,1.0866704,0.891132772,1.48732257,-0.271318942,-0.913472772,-0.271320641,-0.0612314492,-1.64810395,1.44969761,-0.318454117,-0.568039715,0.500422001,-0.979371905,-4.85570955,-0.934276462,0.621702671,-0.932964265,-0.0134533616,0.668057859,-0.151926786,0.0782910436,-0.230671048,0.513814867,0.0833443031,0.166540071,-0.0397444032,-0.00198421115,-0.151651606,0.00323861581,0.0195558295,0.0238797106,0.845834732,0.107491113,0.00950070843,0.0324584283,0.00211734464,0.931459427,0.024464123,3,0.90625
H,19,649,-0.0586743541,0.358925402,1.06270885,0.995430529,-0.136126995,-0.986030579,-0.13612698,0.584654033,-1.66793954,1.3397845,0.160275489,-0.949182749,-1.52503729,-0.460576862,-8.3278017,-1.00005341,1.14330745,-0.918111026,-0.77434659,-0.551215649,-0.0016474959,0.999132395,0.795231462,1.63482261,-0.332911015,-1.14593267,-0.332911462,1.04492903,-1.30098283,1.41148925,-0.916983247,0.0391244888,0.173399016,-1.23944092,0.159516692,-1.13459802,0.576896667,-0.856575251,-0.0846856236,0.605781734,-0.237356812,0.867708743,1.32952917,1.24771845,-0.307538509,-0.910996616,-0.307539672,0.502557814,-1.51427889,1.54997098,-0.614356399,-0.568829477,0.54691577,-0.643975973,-4.85570955,-0.93061161,0.823717058,-1.07923186,-0.179979712,1.04064131,-0.01855666,0.00720863603,-0.125786409,0.729685068,0.0422331281,0.280728936,0.0211910103,0.0358177796,-0.0895319656,0.00752124097,0.0389762446,0.026881434,0.732956171,0.193664908,0.0128711527,0.0442880616,0.00300912419,0.901720285,0.0381113999,3,0.8046875
H,20,674,-0.116530515,0.107223526,0.256592333,1.19799066,-0.175369591,-0.98329401,-0.175369367,0.406342715,-1.39781988,1.24551725,0.458719283,-1.02096677,-0.713424027,0.583374918,-8.3278017,-0.997527957,1.2350744,-1.22585726,-0.840895593,-0.995252848,0.0436091758,1.05815494,0.536559105,1.85962319,-0.210063174,-1.10820973,-0.210063487,1.04492903,-1.59077036,1.66714263,-0.921744287,0.0013224479,0.451574475,0.0864349753,0.159516692,-1.09781432,0.495023578,-0.928763032,-0.164591685,1.1961273,-0.265273631,0.881314516,1.91405785,1.64705873,-0.309993774,-0.904711187,-0.309995085,0.878417373,-1.526407,1.51612008,-0.17170909,-0.766997814,1.28616726,1.20070183,9.32288647,-0.926266611,0.315369099,-0.830096841,-0.517270863,1.74258184,0.153347313,-0.0484393239,0.0184324216,0.218680352,0.0183307864,-0.0979671776,-0.426324368,0.0740391538,-0.54651612,0.00529293902,0.0265058465,0.0160187501,0.830038548,0.122143842,0.0103198504,0.031577047,0.00251007685,0.925690293,0.0299027991,3,0.953125
H,21,699,-0.0961971804,0.00975565519,-0.871970832,0.894150436,-0.162573427,-0.959469795,-0.162573263,-0.12859112,-1.01501977,0.99961251,1.09717131,-1.55169082,-2.05733275,-2.13089967,-8.3278017,-0.973971486,1.40552604,-0.999545038,-0.77308917,-1.75478113,0.0472886413,0.975519359,0.665895283,1.55988908,-0.182601556,-1.05751359,-0.182601318,0.710734189,-1.3893292,1.52837098,-1.32527506,0.304428846,0.476205885,0.465256661,0.159516692,-1.04826176,0.393811703,-0.786523163,-0.112652682,1.22158277,-0.312421113,0.465607256,1.32952917,1.24771845,-0.338726103,-0.894565105,-0.338727474,0.690487623,-1.12500525,1.01877916,0.0951320454,-0.57840699,1.46540213,1.03300381,9.32288647,-0.914506674,0.299788117,-1.11643004,0.140008152,1.6109575,0.333092839,-0.0353402644,0.199729219,0.0398859493,0.0684555843,-0.225517243,-0.806072474,0.111397333,-0.924215734,0.0219291933,0.0328083225,0.0234804209,0.790894985,0.130887017,0.0138366707,0.0344990939,0.00397077855,0.915097773,0.0325956456,3,0.9375
H,22,724,-0.0843722597,0.134123608,-1.83931065,1.50183094,-0.139518946,-0.950853109,-0.139518693,0.584654033,-1.26778758,1.26027656,0.347756147,-1.16151631,-1.84079409,-1.71331906,-8.3278017,-0.96455425,1.2854774,-0.905856967,-0.983085692,-1.13773501,0.0351904184,0.824498951,1.18323994,1.33508849,-0.282456249,-1.04421115,-0.282455951,0.599335909,-1.41078234,1.59272039,-1.3704344,0.315006584,0.231866807,-0.860619247,0.159516692,-1.03458762,0.554879963,-0.851588964,-0.137236252,0.849511385,-0.298183262,0.144433483,1.03726494,0.9282462,-0.331887066,-0.887593806,-0.331888199,-0.0612314492,-0.838008642,0.818619072,0.144465789,-0.197335184,1.64637756,0.697607875,9.32288647,-0.909433544,0.291930616,-1.0977546,0.0922242999,1.90413046,0.537062168,-0.0230212957,0.396183431,-0.563251793,0.067017749,-0.626387179,-1.15913224,0.0959256291,-1.28340983,0.0328924507,0.0145961549,0.0576605573,0.815263093,0.0795877129,0.0144274803,0.0272824354,0.00510749593,0.926838338,0.02634429,3,0.98828125
H,23,749,0.0206408743,0.239603847,-2.32298064,1.70439112,-0.0454225689,-0.914408147,-0.0454224683,0.762965322,-1.55924571,1.79333651,-0.778645158,-0.911830366,-1.05491543,-1.50452864,-8.3278017,-0.928532064,1.36956739,-1.16777861,-1.2469008,0.873998404,-0.0489154011,0.940825641,0.92456764,1.33508849,-0.335449934,-1.02256429,-0.335450441,0.376539409,-1.66289508,1.98095334,-1.46315479,-0.136541069,0.389985681,0.844078362,0.159516692,-1.01438856,0.50839746,-0.835276604,-0.288739294,1.03332663,-0.245070383,0.299362242,0.891132772,0.768510103,-0.237622634,-0.86713028,-0.237623766,-0.0612314492,-0.83437562,0.554549396,0.810942948,-0.247925073,0.5983513,-0.811673939,9.32288647,-0.885623753,0.653914452,-1.06599653,0.155922055,0.976048529,0.66056174,0.0777010322,0.554080606,-0.566208959,0.107314244,-0.602285028,-1.10011566,0.0236548856,-1.22695959,0.0104007628,0.0163868461,0.0335186943,0.895531058,0.0441626422,0.0110989297,0.0198444128,0.00383687462,0.945073664,0.0201461539,3,0.95703125
H,24,774,0.0874528363,0.317586958,-1.35564077,1.70439112,0.0336077176,-0.893844187,0.0336078405,0.762965322,-1.49984527,1.71791697,-0.945181489,-0.723429799,-0.45790562,0.165794224,-8.3278017,-0.907094181,1.18840039,-1.19392955,-0.969493628,1.27050102,-0.0647547022,0.599510074,0.665895283,1.18522155,-0.185032412,-1.00957155,-0.18503271,0.487937659,-1.23343229,1.13585186,0.044091925,-0.633160591,0.668320656,2.35936499,0.159516692,-1.00190175,0.374214768,-0.851018846,0.0397464223,1.35718274,-0.323607445,0.195621923,1.03726494,0.369169801,-0.346027404,-0.872942746,-0.346028656,-0.249161214,-0.91078639,0.624315262,0.732589602,0.0898227468,0.721795022,-0.643975973,-4.85570955,-0.894944489,0.780016661,-1.37503982,0.146692455,1.46705317,0.828726768,0.128229365,0.755571425,-0.97306931,0.213983476,-0.889508784,-1.40693796,0.0774608627,-1.50639224,0.0122760851,0.0209013112,0.0156483296,0.923240483,0.0279338378,0.00960715301,0.0186599046,0.00319117587,0.95031172,0.018230008,3,0.87109375
H,25,799,0.189273417,0.443050504,-2.00053406,1.80567122,0.164364323,-0.82933718,0.164364442,0.228031442,-1.51082027,1.62217629,-0.272875071,-1.0376333,-1.17398548,-1.50452864,-8.3278017,-0.844140172,1.40261889,-1.23039281,-0.881158173,-0.110411033,-0.113872118,0.417478472,0.665895283,1.0353545,-0.23322621,-0.930838108,-0.233226389,0.822132468,-1.10445738,0.776598215,1.09198725,-1.39882934,1.04511034,3.11700845,0.159516692,-0.925208271,0.263080359,-0.882791042,-0.0429124311,1.8615216,-0.376487255,0.317957073,0.452736288,0.44903785,-0.379473716,-0.851549745,-0.379475296,-0.249161214,-0.986933351,0.559022844,0.855061114,0.0716702044,0.937464774,-0.308580011,-4.85570955,-0.868604004,0.569591045,-1.23065627,0.189051718,1.2035718,0.843492508,0.212305427,0.821815133,-1.09078372,0.326773524,-0.968567967,-1.67094254,0.0995901525,-1.73528588,0.0241494551,0.0209880583,0.0105524976,0.923927844,0.0203820542,0.00987276435,0.0180737264,0.00346166594,0.952501774,0.0160900224,3,0.70703125
H,26,824,0.19292818,0.327669531,-2.16175723,2.0082314,0.13603279,-0.806181788,0.136032879,0.406342715,-1.48879039,1.70424974,-0.679554939,-0.846004128,-0.0276685841,1.0009557,12.3872232,-0.819505095,1.14119446,-1.16467762,-1.26229894,2.60757399,-0.0572968386,0.355335802,0.92456764,0.885487437,-0.178083256,-0.871216059,-0.178083286,0.933530688,-0.950864375,0.617510259,1.1132319,-1.26819539,0.848105013,2.73818684,0.159516692,-0.867274523,0.391290516,-0.893339813,-0.337678015,1.70539236,-0.554307401,0.221646354,0.59886843,0.44903785,-0.558183134,-0.865310729,-0.558184505,0.314628065,-0.976282656,0.37633124,1.3528012,0.0184958354,0.590235114,-0.476277977,-4.85570955,-0.88686049,0.59635973,-1.31176937,0.284188986,1.54356241,0.98757273,0.195583612,0.988401294,-1.11981964,0.465537012,-1.00173855,-1.42466295,0.263110369,-1.4391396,0.00490055885,0.022050878,0.0105368281,0.948543429,0.0139683438,0.00827422179,0.0175884739,0.00286862836,0.95594877,0.0153199313,3,0.73046875
H,27,849,0.20701392,0.271761984,-1.83931065,1.40055084,0.157740071,-0.804746687,0.15774031,0.762965322,-1.13065314,1.37818158,-0.6715976,-0.522720277,-0.673003912,-1.08694792,12.3872232,-0.820268512,1.27853465,-1.18844342,-1.10021961,1.59834588,-0.00725111458,0.180755436,0.665895283,1.0353545,-0.112313941,-0.862557828,-0.112314433,0.933530688,-1.12196159,0.989927888,1.23190808,-1.81272984,0.611439228,2.73818684,0.159516692,-0.858456373,0.540740192,-1.00034165,-0.232728094,1.45706785,-0.743416905,0.169053987,1.4756614,0.528905928,-0.717388868,-0.895215333,-0.717390299,0.502557814,-1.55402875,0.916804492,1.08442891,1.13053524,0.470660329,-0.476277977,-4.85570955,-0.916667223,0.75864011,-1.37297678,0.280929416,1.03116548,1.04623199,0.187984034,1.0761925,-1.01874042,0.627522171,-0.949116588,-1.22389853,0.440474719,-1.19677591,0.00629929733,0.103608735,0.0113419695,0.862269938,0.0164800398,0.0094373934,0.0281984955,0.00319571793,0.940894723,0.0182736702,3,0.8125
H,28,874,0.166014448,0.0548180938,-1.83931065,0.792870343,0.129694864,-0.792674601,0.129695222,0.94127661,-0.914162397,1.29762733,-0.332179993,-0.843801618,-0.818004251,-1.50452864,12.3872232,-0.808019578,1.2770282,-1.11541426,-1.11360681,1.24789107,0.0264624208,-0.165225729,0.148550555,0.810553908,0.0367815867,-0.807740331,0.0367815383,0.710734189,-0.668707967,0.325218827,1.53367519,-1.47959971,0.478171825,0.654667497,0.159516692,-0.805251539,0.554273188,-0.915281832,-0.326748282,1.09129679,-0.76538223,0.103376329,1.91405785,0.768510103,-0.755344331,-0.886622846,-0.755345583,1.06634712,-1.42438602,0.873440385,0.564383805,1.06520653,1.27273774,-0.308580011,9.32288647,-0.908304334,0.460906774,-1.24767244,0.0294779073,1.56451166,1.04415727,0.14987126,1.05666518,-1.16920114,0.616445065,-1.05006111,-1.26429033,0.47216621,-1.2305789,0.0164732113,0.0703798532,0.0150706284,0.881029725,0.0170466285,0.00943152606,0.0247425865,0.00333464402,0.945581615,0.0169096403,3,0.9140625
H,29,899,0.191965729,-0.243916705,-2.00053406,0.286469847,0.164854825,-0.767299116,0.164855316,0.406342715,-0.471387088,0.987534344,0.368609309,-1.1698221,-1.30499518,-3.59243226,-8.11642361,-0.782258153,1.50811636,-1.26300931,-1.07760751,-0.204730913,0.0548940189,-0.374282181,0.148550555,0.66068691,0.0523651019,-0.759753525,0.0523653813,0.487937659,-0.565539181,0.402017862,0.948496103,-1.11785781,0.729157627,2.73818684,0.159516692,-0.758738816,0.469729424,-0.930961847,-0.237835348,1.44360554,-0.919380605,-0.243061632,2.06018996,0.688642025,-0.898453295,-0.900436759,-0.898454368,0.878417373,-1.16114843,0.640081763,0.402750134,1.58821082,1.40080249,-0.308580011,9.32288647,-0.922300398,0.423111886,-1.36236286,0.416702121,1.61197233,1.06679606,0.157442451,1.10931325,-1.35956907,0.765546024,-1.17511797,-1.3649168,0.618900478,-1.2690556,0.0375414304,0.14649725,0.00507926941,0.791274965,0.0196071062,0.0123021053,0.0387259759,0.00441918429,0.922918856,0.0216338299,3,0.96484375
H,30,924,0.238497213,-0.388047278,-2.00053406,-0.219930619,0.250327855,-0.72842598,0.250327915,0.406342715,-0.448831379,1.14381754,0.0702049583,-1.15955341,-0.708432913,-1.50452864,12.3872232,-0.744072258,1.36982989,-1.20604289,-1.23495901,1.55600286,0.0288403593,-0.171861425,0.148550555,0.885487437,0.00705601787,-0.711510539,0.00705599366,0.822132468,-0.944666028,0.958868265,0.159019381,-0.707434952,0.971541107,5.01111698,0.159516692,-0.711735725,0.386645168,-0.959070146,-0.18754898,1.74130118,-0.935794234,-0.414341092,1.32952917,1.00811422,-0.876153946,-0.890140295,-0.876155376,1.06634712,-1.14014757,0.76556462,0.694206774,0.756548166,1.30993187,0.194513932,9.32288647,-0.91209501,0.599141955,-1.32243741,0.0323947743,1.85034108,1.2043575,0.196379036,1.27472699,-1.81054258,0.812766016,-1.45273125,-1.56392372,0.623924613,-1.42880118,0.0185829587,0.0886255503,0.00198776135,0.883604109,0.00719956914,0.00958322547,0.025771739,0.00344209839,0.944284797,0.0169181414,3,0.9921875
H,31,949,0.347453117,-0.562070072,-2.32298064,-0.321210712,0.380204529,-0.718435585,0.380204976,0.228031442,0.030641336,0.889880002,0.053769514,-1.11461425,-0.609287918,-2.33968997,-8.11642361,-0.73306787,1.48029363,-1.2826401,-1.29651916,0.326205015,-0.0274807755,-0.407651037,-0.110121809,0.735620439,-0.0456386805,-0.766145349,-0.0456393138,0.599335909,-0.819998503,1.1790868,-0.60568732,-0.399355888,0.760320604,4.44288445,0.159516692,-0.76483345,0.578960001,-1.04546583,-0.372065753,1.45101547,-0.996799588,-0.604138255,1.62179351,1.0879823,-0.95425421,-0.908495367,-0.954255342,0.878417373,-0.99741137,0.73249501,0.872251689,0.735497236,0.986763716,-0.14088203,9.32288647,-0.929272115,0.795901835,-1.33465648,-0.131925553,1.4941138,1.27901757,0.284804255,1.41376865,-1.38238275,0.94215095,-1.18790507,-1.23279011,0.658407807,-1.1187607,0.0140761444,0.177874431,0.00123525597,0.791924,0.0148901558,0.0108088208,0.0369903706,0.00345673994,0.926280141,0.0224638637,3,0.953125
H,32,974,0.377125829,-0.587848008,-2.32298064,-0.827611148,0.474332213,-0.697210312,0.474332333,-0.663524985,-0.117505528,1.05338275,-0.289359927,-0.980652452,-0.440814018,-1.50452864,12.3872232,-0.71007055,1.39337754,-1.27942216,-1.2888732,1.71655083,-0.0692682862,-0.77049607,-0.368794173,0.585753381,-0.0428920388,-0.752858758,-0.0428923257,0.376539409,-0.478054255,0.707967818,-0.186630383,-0.373399734,0.500448823,2.35936499,0.159516692,-0.751534641,0.623053193,-0.985177159,-0.376562476,1.18361282,-0.92312634,-0.871237457,1.32952917,0.608773947,-0.886764109,-0.89129144,-0.886765659,-0.0612314492,-0.704404116,0.930576086,-0.318738729,0.96884352,0.342134327,-0.979371905,-4.85570955,-0.912624776,1.14771605,-1.21203375,-0.241665006,0.794748187,1.30192852,0.317508936,1.44343209,-1.32552826,0.897847533,-1.14899504,-1.19102919,0.575159371,-1.10183442,0.0239154138,0.0882731602,0.00198280136,0.873943329,0.0118852938,0.0122119859,0.0266084336,0.00323881512,0.93655771,0.021383062,3,0.875
H,33,999,0.395725936,-0.54791081,-2.00053406,-0.928891242,0.487374485,-0.684610128,0.48737523,-0.663524985,-0.305498928,1.4826932,-1.35532081,-0.877279937,-0.0760503784,-1.50452864,12.3872232,-0.700573623,1.29546702,-1.1303668,-1.36689878,1.82404172,-0.0704276338,-0.830809355,-0.368794173,0.810553908,0.00133579853,-0.739148617,0.00133558235,-0.0690536276,-0.502432346,0.721844137,-0.0676540658,-0.459832847,0.60460043,3.49583006,0.159516692,-0.738811612,0.638166964,-1.08874023,-0.228684604,1.32575965,-0.963813007,-1.14109528,0.0143398419,0.528905928,-0.938630939,-0.89442879,-0.93863225,-0.249161214,-0.538152874,0.836276829,-0.0440417714,0.345598489,0.277403533,-1.31476784,-4.85570955,-0.91622746,1.15021729,-1.21248198,-0.288754523,0.991771579,1.36645246,0.329526693,1.52525091,-1.37599075,0.946017325,-1.18199313,-1.07977474,0.61170727,-0.995896637,0.0214719456,0.107475162,0.000922556967,0.861890256,0.00824009534,0.0117280921,0.024633117,0.00310264225,0.9399876,0.0205485504,3,0.9375
H,34,1024,0.407722175,-0.696767807,-1.51686406,-1.53657186,0.504534483,-0.69539845,0.504534721,-1.55508137,-0.348146975,1.54790974,-1.33271217,-0.968122125,0.152504414,-1.08694792,12.3872232,-0.71110481,1.26796842,-1.16284382,-1.35201597,2.2227335,-0.0437797904,-0.587498367,-0.368794173,0.885487437,0.0220499802,-0.758081555,0.0220496599,-0.180451885,-0.294252157,0.348659545,-0.171221167,0.0898530185,0.370265484,-0.481797546,0.159516692,-0.75725019,0.665042639,-1.03022611,-0.286047012,1.13048542,-1.08755732,-1.0941608,0.160471991,0.369169801,-1.06977344,-0.919370413,-1.06977451,-0.0612314492,-0.613356471,0.877414644,0.592568398,-0.367951661,0.726629436,0.0268159546,-4.85570955,-0.940932989,0.97405833,-1.17241979,-0.49570626,1.37531519,1.42058957,0.328028828,1.60358107,-1.41483152,1.06482852,-1.20899189,-1.00742078,0.737174749,-0.904878736,0.0255208407,0.109073319,0.00210325932,0.848454714,0.0148478756,0.0119062681,0.0282393061,0.00340657681,0.934168398,0.0222793818,3,0.92578125
H,35,1049,0.421936572,-0.628364623,-1.67808735,-1.43529177,0.539925873,-0.69428277,0.539926171,-1.55508137,-0.185547113,1.3976531,-1.4255923,-0.730184138,-0.207928151,-1.50452864,12.3872232,-0.710386217,1.33936942,-1.23010612,-1.21948397,1.24947333,-0.0911383331,-0.706296623,-0.368794173,0.810553908,-0.000177105874,-0.776462138,-0.000177257956,-0.29185015,-0.404886067,0.548731744,-0.111809634,-0.270266116,0.0309339873,-1.80767345,0.159516692,-0.774978817,0.819072604,-1.07107854,-0.1503838,0.612796009,-0.955871344,-1.33347142,-0.424056619,0.44903785,-1.00829172,-0.90060401,-1.00829327,-0.0612314492,-0.376335531,1.24754024,-0.338338852,-0.455404967,1.84713733,2.20688963,-4.85570955,-0.922394454,0.90610224,-1.31975651,-0.991907656,2.03285813,1.50633693,0.352821052,1.68447125,-1.44808364,0.956802964,-1.22734714,-1.11086917,0.596520245,-1.02165222,0.0977137834,0.07405366,0.00606384315,0.80092293,0.0212457441,0.0154230734,0.02740293,0.00409434643,0.926321805,0.0267579276,3,0.75390625
H,36,1074,0.393905699,-0.462800056,-1.51686406,-1.43529177,0.486261934,-0.725984454,0.486262143,-0.841836274,-0.461613774,1.41299391,-1.28290462,-0.712822795,-0.629642427,-1.50452864,12.3872232,-0.741582155,1.34806991,-1.11743402,-1.32443857,1.58243918,-0.0651575401,-0.89956969,-0.110121809,0.66068691,0.0475154035,-0.814178348,0.0475153774,-0.514646649,-0.347955674,0.363113433,0.362807423,-0.568287253,-0.0142469453,-2.18649507,0.159516692,-0.811633646,0.707473338,-0.877564847,-0.282303095,0.549045742,-0.977683723,-1.2490859,0.306604147,0.369169801,-1.05019891,-0.914300144,-1.05020034,-0.249161214,-0.256533265,0.909914851,-0.207663804,0.0592794754,0.427486002,-0.476277977,9.32288647,-0.935602129,1.35839069,-1.29788256,-0.855863273,1.15144098,1.44966114,0.326614678,1.61337864,-0.667015076,0.956983984,-0.734464705,-0.529024303,0.626434624,-0.534046948,0.039674595,0.0865016803,0.0042108912,0.850597501,0.0190152638,0.0138561986,0.0269540641,0.00311465049,0.931226015,0.0248491392,3,0.8984375
H,37,1099,0.325212061,-0.282114685,-1.03319418,-0.827611148,0.381754458,-0.758693576,0.381754279,-0.306902409,-0.599183977,1.54345226,-1.8179487,-0.433657587,-0.30971095,-1.50452864,-8.11642361,-0.774218082,1.22608101,-1.05669606,-1.22447586,1.23037314,-0.0645799413,-0.981677413,-0.110121809,0.66068691,0.045849409,-0.842647016,0.0458488464,-0.626044929,-0.326863348,0.492963046,-0.0452680103,-0.397302121,0.142131209,-0.481797546,0.159516692,-0.838962913,0.754032314,-1.01825297,-0.378484011,0.969459534,-0.817835033,-0.795859277,-0.277924448,0.688642025,-0.88646239,-0.897465587,-0.886463761,0.314628065,-0.920897961,1.87765932,-1.16510642,-0.138796479,0.373657405,-0.476277977,-4.85570955,-0.919137895,1.3880136,-1.11074471,-1.28738582,0.949490964,1.4537406,0.283212751,1.56136608,-0.900803566,0.772248089,-0.87001735,-0.672780216,0.483221233,-0.683876932,0.0257555749,0.121364415,0.00335471891,0.824483216,0.0250421315,0.0140251247,0.0309162494,0.00384055055,0.924393773,0.0268242918,3,0.98828125
H,38,1124,0.347455204,-0.271943033,-1.83931065,-0.523770869,0.417116016,-0.781954527,0.417116314,0.228031442,-0.467820823,1.25772369,-1.15146661,-0.592923999,-0.691722512,-1.50452864,-8.11642361,-0.796944559,1.25046611,-1.00692272,-1.20872641,1.00105512,-0.0795353651,-0.892637491,-0.110121809,0.510819852,-0.0419254638,-0.901372433,-0.0419261195,-0.403248399,-0.198353365,0.214216173,-0.00143245154,-0.0484756939,0.403683901,1.41231084,0.159516692,-0.896648288,0.544837117,-0.908181965,-0.299478501,1.09032977,-0.819147289,-0.57457304,0.0143398419,1.0879823,-0.8768664,-0.911550403,-0.876867831,0.878417373,-1.14168751,1.85669732,-0.551241219,-0.263863981,-0.464175045,-2.99174762,-4.85570955,-0.931675076,1.62639332,-1.1979363,-0.63604337,0.0970538631,1.39278579,0.302322179,1.50993371,-0.437811732,0.788668156,-0.565071642,-0.394715309,0.47865057,-0.440496922,0.00605467614,0.113008313,0.00152700953,0.857206941,0.0222031362,0.00981677324,0.0237852409,0.00275538582,0.943179905,0.0204627234,3,0.9765625
H,39,1149,0.415687412,-0.251217216,-1.83931065,-0.118650518,0.526630044,-0.779803097,0.526630342,0.228031442,-0.583978474,1.40812528,-1.0570786,-0.81163764,-0.445757896,-1.50452864,12.3872232,-0.795057297,1.25117099,-1.02702892,-1.21257699,1.14523983,-0.131065086,-0.852520943,-0.110121809,0.286019325,-0.148737118,-0.940230906,-0.148737356,0.376539409,-0.429811954,0.705406368,-0.453253984,-0.252276808,0.78418833,2.92759752,0.159516692,-0.931374967,0.495517522,-0.980020165,-0.477445006,1.6586796,-0.806754589,-0.490711629,0.0143398419,1.40745461,-0.887686491,-0.916595221,-0.8876881,1.06634712,-1.23726356,2.07210445,-0.644726157,-0.783079028,0.566891968,-0.811673939,-4.85570955,-0.938177943,1.47300136,-1.27152836,-0.956065118,1.03413892,1.38607883,0.362474233,1.53538179,-0.463821799,0.824745953,-0.568716288,-0.542209864,0.448004037,-0.567223907,0.00774707599,0.0961980447,0.000790817954,0.879885435,0.0153785991,0.00864308048,0.0202528983,0.00246365601,0.950145245,0.0184951387,3,0.95703125
H,40,1174,0.440924138,-0.0292489845,-1.51686406,0.38774994,0.547638297,-0.777167737,0.547638893,0.762965322,-0.655351102,1.3291558,-0.849936008,-0.8834005,-0.325302631,-0.669367194,12.3872232,-0.792343259,1.25700188,-1.1521672,-1.12302399,1.76752329,-0.129597679,-0.977991939,-0.110121809,0.211085811,-0.139592439,-0.945921361,-0.139592186,0.376539409,-0.439895928,0.798899114,-0.704022348,-0.133700147,0.375023097,2.73818684,0.159516692,-0.939854622,0.578835249,-0.875141084,-0.448757201,0.913088262,-0.870991409,-0.391284913,-0.277924448,1.64705873,-0.97239387,-0.926955938,-0.972395182,1.06634712,-1.30126321,1.82265532,-0.0322768129,-0.609346926,1.13534951,0.697607875,-4.85570955,-0.947663367,1.02241755,-1.26431131,-0.537241757,1.11003864,1.33790529,0.37760216,1.50554717,-0.335238665,0.896158814,-0.492827505,-0.473555833,0.505236924,-0.498880625,0.0056111305,0.102464177,0.00148094434,0.873707652,0.0167361367,0.0084909955,0.0226899739,0.00241322489,0.94701153,0.0193942226,3,0.84765625
H,41,1199,0.419586152,-0.00124964572,-1.67808735,0.995430529,0.542313278,-0.803755164,0.542313576,0.762965322,-0.596873224,1.15269494,-0.105302185,-1.05718982,-0.681657076,-1.50452864,12.3872232,-0.818199515,1.30127859,-1.18958426,-1.11634052,1.23655856,-0.0951945707,-0.688495457,-0.110121809,0.510819852,-0.137359709,-0.977553546,-0.137359545,0.822132468,-0.898595035,1.41464365,-0.857477009,-0.674561322,0.325574189,2.73818684,0.159516692,-0.967988431,0.667809069,-0.917250752,-0.541218042,1.02907217,-0.936241865,-0.185683846,-0.716320932,1.96653092,-0.94519031,-0.945140779,-0.945191741,1.06634712,-1.56542754,1.96352494,0.506929576,-1.28799367,1.28303897,1.36839974,9.32288647,-0.966542184,0.967748523,-1.32846665,-0.800481439,2.01140022,1.2720443,0.352734476,1.43432212,-0.441600204,0.938070714,-0.579603612,-0.37465176,0.577104926,-0.40884614,0.00502036558,0.183805659,0.00157927768,0.792746127,0.0168486089,0.00928290654,0.0290308502,0.00266241143,0.938262582,0.020761162,3,0.98046875
H,42,1224,0.391335011,-0.125131309,-2.00053406,1.29927075,0.495666146,-0.821436822,0.495666295,0.762965322,-0.274478704,0.835164845,0.479602218,-1.24055004,-0.26067251,-0.2517865,12.3872232,-0.836595118,1.26868021,-1.24398184,-1.15334415,1.95622063,-0.100054719,-0.298253149,-0.110121809,0.885487437,-0.189587325,-0.999614716,-0.189587638,0.822132468,-1.21725035,1.79116559,-1.39475715,-0.319461286,0.777057111,3.68524098,0.159516692,-0.992027998,0.478482336,-0.908537805,-0.479834437,1.34939921,-0.852628589,-0.152265385,-1.00858521,1.80679488,-0.907093883,-0.939605534,-0.907095611,1.44220662,-1.48219812,2.00249219,0.355582386,-1.78612614,0.207496032,-1.8178618,9.32288647,-0.960405827,0.876708031,-0.506402969,-1.07999969,0.602352917,1.24061751,0.336795211,1.37751818,-0.756291211,0.846980631,-0.773221552,-0.593468249,0.500294209,-0.606265724,0.00176214566,0.0883977637,0.000985359307,0.892972887,0.0158818103,0.00687556388,0.0196481217,0.00200827094,0.955123901,0.0163440611,3,0.984375
H,43,1249,0.209901541,-0.105908088,-1.83931065,1.70439112,0.290670663,-0.859690785,0.290670663,1.1195879,-0.713379681,1.20215881,0.357785553,-1.5432328,-0.271936506,-1.08694792,12.3872232,-0.874444604,1.17862487,-1.06363571,-1.16222453,2.06720448,-0.00663619163,-0.032786496,0.148550555,1.11028802,-0.073835738,-0.977306485,-0.0738356262,1.26772547,-1.50801635,2.05650711,-1.0523243,-0.96162051,0.0376885645,-0.671208382,0.159516692,-0.970502794,0.751213312,-0.91652751,-0.460463047,0.583622813,-0.751726031,-0.435252279,-1.00858521,1.48732257,-0.813322365,-0.926160455,-0.813323915,0.502557814,-1.01504552,1.67832077,0.608240664,-1.74528575,2.08380485,2.87768149,9.32288647,-0.947027683,0.694789648,-1.29027259,-0.955765605,1.87913907,1.24496651,0.18965973,1.27974248,-0.981998503,0.636429548,-0.925916493,-0.508003354,0.447852641,-0.553784132,0.0211830791,0.0736977756,0.0163542684,0.850045085,0.0387197286,0.0108993845,0.023338804,0.00378924911,0.938979387,0.0229931027,3,0.91015625
H,44,1274,0.119517088,-0.295593947,-2.00053406,1.50183094,0.205499768,-0.877655268,0.205499977,0.94127661,-0.658073306,1.25789392,0.0724503994,-1.44051385,-0.730805695,-1.50452864,-8.11642361,-0.892453551,1.34359932,-1.16735768,-1.13367307,0.69463408,0.0610900484,-0.0451600067,-0.110121809,0.885487437,0.0310175419,-0.960241139,0.031017581,1.04492903,-1.35312378,1.6803503,-0.446577549,-1.0463773,-0.117772341,-3.32296014,0.159516692,-0.953922451,0.748152196,-0.871125102,-0.387012213,0.369583219,-0.780024529,-0.436255544,-1.00858521,1.40745461,-0.805835128,-0.929414868,-0.80583626,0.690487623,-0.997736573,1.33743954,0.149626702,-0.643672347,0.472536087,-0.476277977,-4.85570955,-0.949837208,1.03092861,-0.999390543,-0.950695395,1.04648793,1.1922096,0.107577391,1.18316293,-1.20639706,0.595101535,-1.07681787,-0.734914303,0.497905612,-0.757027745,0.0149947377,0.0515510626,0.031642966,0.871291101,0.0305200946,0.0131494924,0.024300402,0.00526007265,0.935635626,0.0216543283,3,0.9609375
H,45,1299,0.0424858555,-0.262206167,-1.51686406,1.80567122,0.116268329,-0.901730001,0.116268314,1.1195879,-1.03211308,1.44656849,0.600793481,-1.8727113,-1.37834704,-3.17485142,-8.11642361,-0.916184545,1.46012223,-1.17584407,-1.13251436,0.272505969,0.0643536374,0.0846688673,-0.110121809,0.810553908,-0.00443905359,-0.978511095,-0.00443913369,0.933530688,-1.30045962,1.52644098,0.00678647403,-1.29892659,0.0395673811,-0.860619247,0.159516692,-0.970385075,0.734767497,-0.950445712,-0.499789208,0.658331215,-0.62981683,-0.249041885,-0.716320932,1.16785038,-0.645187974,-0.914524436,-0.645189404,0.502557814,-1.08600509,1.36496961,0.357428104,-0.741193771,0.979926884,-0.14088203,-4.85570955,-0.936031997,0.955234706,-1.18941069,-0.917322099,1.49138474,1.14988005,0.0547298305,1.08338857,-1.04888463,0.416184455,-0.971377075,-0.576442897,0.371468186,-0.640585423,0.0316383913,0.0489703603,0.0225878619,0.863908708,0.0328946002,0.0119087864,0.0209816881,0.00467130402,0.943346441,0.0190918408,3,0.84765625
H,46,1324,0.0739959702,0.155777872,-1.19441748,2.21079159,0.144300312,-0.915558755,0.144300655,0.762965322,-1.68243611,1.75570977,0.900622606,-2.23157477,-0.533788502,-0.2517865,-8.11642361,-0.930081427,1.2803185,-1.20954347,-1.08958519,1.41773927,0.0308006499,0.43574658,-0.110121809,1.11028802,-0.103553504,-1.03086615,-0.103553995,0.933530688,-1.42366004,1.43545973,0.629174232,-1.68972397,0.0489452109,-1.05003011,0.159516692,-1.02219331,0.616348565,-0.861057937,-0.393086195,0.641853631,-0.586896658,-0.591979563,-0.716320932,1.00811422,-0.567795455,-0.921346605,-0.567797184,-0.0612314492,-0.935159504,1.55181241,-0.544692338,-0.50448513,0.773202181,-0.308580011,-4.85570955,-0.941313386,1.02175772,-1.01946807,-0.92269665,1.1585393,1.01403606,0.0871752203,0.96111089,-0.746378422,0.405258447,-0.767790496,-0.423848987,0.323283553,-0.501813889,0.022964308,0.0140716946,0.0169727765,0.925269485,0.0207217913,0.00927029736,0.0167421568,0.00311877532,0.954285204,0.0165835358,3,0.8359375
H,47,1349,-0.0904396623,0.178361803,-0.71074754,2.0082314,-0.0982332975,-0.96082741,-0.0982331783,0.94127661,-1.92342794,1.74739718,0.968297541,-2.13170791,-0.0408507399,0.792165279,-8.3278017,-0.974967301,0.967268407,-1.09245098,-0.877293229,2.52670908,0.13749215,0.653343558,0.0192143731,1.48495555,-0.0215678923,-1.04476261,-0.0215680934,0.599335909,-1.43784678,1.50100708,0.34691143,-1.48848486,0.0631190389,-1.23944092,0.159516692,-1.03281391,0.660611093,-0.91310519,-0.321769893,0.598899662,-0.600312591,-0.379261464,0.306604147,0.848378122,-0.640166998,-0.932949901,-0.64016819,-0.0612314492,-1.14089942,1.43411791,-0.218550041,0.297761053,0.6211465,-0.476277977,-4.85570955,-0.954437315,1.05879784,-1.13441527,-0.704679132,1.09388602,0.909168959,-0.0611174218,0.778129637,-0.56802702,0.292850733,-0.678642929,-0.405165792,0.374393702,-0.488641471,0.00981262606,0.0128093231,0.0155755263,0.935771227,0.0260312781,0.00967217702,0.0178850461,0.0032753367,0.951705873,0.0174615011,3,0.95703125
H,48,1374,-0.166008204,0.157807618,0.256592333,1.70439112,-0.157847479,-0.972221553,-0.157846913,0.584654033,-1.82341754,1.58505011,1.22834086,-1.98166358,-0.832666099,0.374584585,-8.3278017,-0.986079812,1.09469879,-1.12122393,-0.60388118,0.165165395,0.14882794,0.494024605,-0.110121809,1.41002202,-0.0210707951,-1.03816032,-0.0210711546,0.822132468,-1.22274923,1.22897923,0.547718167,-1.29701793,0.173147917,-0.481797546,0.159516692,-1.02929831,0.610177696,-0.9324193,-0.286197394,0.908725858,-0.492686182,0.272044986,1.32952917,1.24771845,-0.540756166,-0.918363571,-0.540757477,0.314628065,-1.46277487,1.2234031,-0.166230962,0.922423601,1.05360281,0.0268159546,-4.85570955,-0.939022481,0.727502048,-1.07587433,-0.575615942,1.06729209,0.816691697,-0.118373536,0.641287386,-0.600806117,0.150406733,-0.694094777,-0.377938896,0.290951341,-0.476213396,0.0106492061,0.0119324829,0.0122600477,0.931687236,0.033470992,0.00925310887,0.0179751627,0.00318699609,0.952285647,0.0172990728,3,0.84375
H,49,1399,0.0496414788,0.305456251,0.417815626,1.90695131,0.0615449324,-0.935219646,0.0615451038,0.584654033,-1.59245169,1.32695246,1.58414578,-1.95234895,-2.1578629,-2.96606112,-8.3278017,-0.949849427,1.4943341,-1.24789524,-0.801925838,-0.649259806,0.0583608076,0.40970096,0.148550555,1.26015508,-0.104948737,-1.05951762,-0.104949005,0.376539409,-0.953671813,0.880140603,0.726801276,-1.22296631,0.35734126,0.465256661,0.159516692,-1.04907358,0.60395968,-0.984352231,-0.250505239,0.912049353,-0.625145137,0.461345136,1.32952917,1.24771845,-0.643713832,-0.935643494,-0.643715143,0.878417373,-1.63638663,0.922816932,0.176109552,0.648042917,0.620589316,-0.643975973,9.32288647,-0.953151882,0.443203688,-0.745081544,-0.184795648,0.959340274,0.752955198,0.0615684092,0.696993709,-0.577990115,0.417733669,-0.667691946,-0.627767205,0.365325302,-0.688811481,0.0162310693,0.0446749665,0.007975935,0.870926023,0.060191974,0.0125848185,0.0291904546,0.00390584418,0.931844831,0.0224740691,3,0.953125
H,50,1424,0.0668616965,0.724382639,0.74026227,1.80567122,0.0179850571,-0.939562559,0.017985139,0.94127661,-1.83633709,1.32108164,1.51087034,-1.81286228,-0.929192424,0.374584585,-8.3278017,-0.952911675,1.1235944,-1.201406,-0.569667935,0.789690197,0.0108423121,0.6215747,0.148550555,1.48495555,-0.187482476,-1.08577728,-0.187482566,0.265141159,-0.914201498,0.698668778,0.814499438,-0.947062969,0.736869335,2.35936499,0.159516692,-1.07603228,0.461473584,-1.01978254,-0.138375401,1.63853824,-0.510388553,0.422200918,1.03726494,1.24771845,-0.60902065,-0.926342964,-0.609022021,0.502557814,-1.49602139,1.04334474,-0.0141457161,0.281921655,1.76968074,1.20070183,9.32288647,-0.947873652,0.220622465,-1.11067522,-0.467489421,2.42723584,0.699381113,0.0890237167,0.640380502,-1.04780781,0.340169668,-0.959002972,-0.916623592,0.253382534,-0.981732845,0.0108272973,0.0138168223,0.00306753488,0.932112694,0.0401756577,0.00870132446,0.0190971512,0.00274600694,0.951571167,0.0178843271,3,0.98828125
H,51,1449,0.0151065215,0.619762182,0.579038918,1.80567122,-0.0378942639,-0.939564049,-0.0378940441,0.762965322,-1.85797107,1.33037269,1.02560329,-1.50994492,-0.743746102,0.374584585,-8.3278017,-0.953946292,0.978760719,-0.853892505,-0.786841273,1.09284329,-0.0108340178,0.657060206,0.148550555,1.78468966,-0.189073429,-1.06928337,-0.18907328,0.153742895,-1.43176723,1.45842111,0.181093022,-1.03550911,0.737714231,2.73818684,0.159516692,-1.05917895,0.482805014,-1.04604709,-0.161450773,1.4158951,-0.345532835,0.867279053,0.891132772,1.32758653,-0.493926615,-0.898912728,-0.493928134,0.502557814,-1.8459599,1.40578043,-0.390269935,0.206767663,0.65540719,-0.811673939,-4.85570955,-0.920297444,0.527712941,-1.0628624,0.302422762,0.84286356,0.687426507,0.0611464642,0.588394046,-1.09470427,0.176897824,-0.9817698,-0.713262022,0.114919722,-0.81811887,0.00387561787,0.0238331892,0.00572991977,0.914429128,0.0521320589,0.0098940786,0.0200697891,0.00341057382,0.947059214,0.0195664037,3,0.8125
H,52,1474,-0.036871817,0.237546712,-0.71074754,1.60311103,-0.0954530463,-0.938747048,-0.0954531506,0.406342715,-1.37656939,1.08016062,1.23667932,-1.53836763,-1.10696495,-0.460576862,-8.3278017,-0.951915264,1.20367503,-1.05046749,-0.736196876,-0.392072141,0.0149554238,0.642179549,0.407222897,1.85962319,-0.174775884,-1.04012728,-0.174776345,0.599335909,-1.57099795,1.76091254,-0.448321432,-0.738085508,0.400986791,0.275845826,0.159516692,-1.03118038,0.544693649,-0.896467328,-0.295176595,1.11051738,-0.325179875,1.0686065,1.4756614,1.24771845,-0.457786858,-0.888551056,-0.457788259,0.878417373,-1.79725945,1.28321445,-0.0846589133,0.345107645,0.95390135,0.0268159546,-4.85570955,-0.910240591,0.584351897,-1.06222105,-0.511023879,2.01492047,0.649678648,0.016791977,0.526879728,-1.07554746,0.122909091,-0.971091688,-0.946184635,0.108989112,-1.05832446,0.00628916733,0.0222093593,0.0226789713,0.893900394,0.0549220964,0.0106695378,0.0210715737,0.00386754307,0.944229007,0.0201623607,3,0.83984375
H,53,1499,0.0773843378,0.239253625,-0.0658542961,1.29927075,0.0586989149,-0.89858377,0.0586991534,-0.12859112,-1.47819459,1.40565312,0.366424203,-1.23813057,-1.67730677,-2.13089967,-8.3278017,-0.912998557,1.4639945,-1.18204927,-0.844465971,-0.808082879,-0.040199846,0.482183784,0.407222897,1.33508849,-0.191127852,-1.01022232,-0.191128135,0.710734189,-1.38819659,1.44750035,0.326601148,-1.2743454,-0.0890339911,-2.94413853,0.159516692,-1.00094175,0.718804002,-0.915734053,-0.268706411,0.5567137,-0.376585245,0.682768166,1.18339705,1.0879823,-0.458380401,-0.882356465,-0.458381981,0.878417373,-1.64336467,1.32569313,-0.272103578,-0.0836852416,0.873634279,-0.14088203,-4.85570955,-0.900910079,0.580075264,-0.966947734,-0.587350309,1.61706626,0.669035614,0.113204464,0.601137459,-0.778762639,0.246011838,-0.761363804,-0.613522053,0.127868265,-0.710971773,0.023014944,0.0398888178,0.0885689557,0.776696861,0.0718304887,0.0131817916,0.0280297846,0.0047190818,0.930997431,0.0230718832,3,0.8671875
H,54,1524,0.233835995,0.328174621,-0.71074754,0.995430529,0.192761034,-0.874197185,0.192761213,0.0497201607,-1.12747478,1.09761429,0.668980539,-1.24781346,-0.716474473,0.374584585,-8.3278017,-0.888085842,1.2087816,-1.19971442,-0.958158672,1.28597629,-0.0948035792,0.270181477,0.407222897,1.18522155,-0.297312737,-1.03647876,-0.297312826,0.710734189,-1.67151976,2.10349631,-0.782535911,-0.938539267,0.388835043,1.79113257,0.159516692,-1.02799881,0.616478682,-0.952045023,-0.325818032,0.933098674,-0.523363709,0.32598272,1.32952917,1.00811422,-0.618580699,-0.906996965,-0.618582368,0.314628065,-1.59930658,1.75062323,-0.239306659,-0.778742075,0.814856112,-0.643975973,-4.85570955,-0.928669989,0.661103606,-0.786969125,-0.55210644,1.14672709,0.750162601,0.234863982,0.764524519,-0.878128648,0.470381498,-0.829899013,-0.714495957,0.223601788,-0.775911152,0.00804568361,0.045022212,0.0106180655,0.90308702,0.0332270302,0.00920992065,0.0247193631,0.00282545155,0.94414562,0.0190996174,3,0.85546875
H,55,1549,0.156136826,-0.0261371303,-1.35564077,0.489030033,0.133437201,-0.865052819,0.13343738,-0.12859112,-0.966352224,1.25823927,0.414396524,-1.34912229,-1.93995249,-4.21880341,-8.3278017,-0.879074574,1.58229387,-1.20303714,-1.12442839,-1.49753726,-0.0282971188,0.302290171,0.148550555,1.11028802,-0.230718523,-0.970131278,-0.230718136,0.710734189,-1.46951771,1.69319022,-0.0343211293,-1.40955281,0.787269473,3.11700845,0.159516692,-0.96265614,0.407975018,-0.859989464,-0.267941147,1.348454,-0.568738043,0.563619673,2.06018996,1.00811422,-0.665455043,-0.89801389,-0.665456295,0.502557814,-1.82212543,1.3846091,0.160427853,-0.0521607064,0.629220486,-0.476277977,-4.85570955,-0.919320822,0.612963498,-1.00944376,-0.11444246,1.3536129,0.705786407,0.161669895,0.691834152,-0.775888801,0.45054847,-0.77479583,-0.363042921,0.285964787,-0.443645895,0.0116827982,0.148124382,0.00705725886,0.786829591,0.046305947,0.0140979197,0.0337403677,0.00480405102,0.923497498,0.0238601603,3,0.82421875
H,56,1574,0.101951055,-0.347792596,-1.83931065,0.185189754,0.127728224,-0.85527426,0.127728075,-0.306902409,-0.306596518,0.66632098,1.29697204,-1.52963221,-1.13886106,-1.92210937,-8.3278017,-0.870014489,1.42428255,-1.23977709,-1.07430124,0.398124158,0.031541165,0.136296093,0.148550555,1.18522155,-0.132068753,-0.910002887,-0.132068455,0.822132468,-1.38930106,1.7267983,-0.543994963,-0.974412262,0.805782914,3.68524098,0.159516692,-0.905013084,0.438524157,-0.874720752,-0.49033311,1.66921139,-0.646353483,0.730113745,2.49858642,1.16785038,-0.714174926,-0.896143377,-0.714176118,0.502557814,-1.98087811,1.35454309,0.25839746,-0.163800105,0.164345488,-0.979371905,-4.85570955,-0.917569995,0.699384749,-0.896893859,-0.24258019,0.942030489,0.806310892,0.105681896,0.775822461,-0.469611108,0.473037392,-0.593136668,-0.177551314,0.372898638,-0.266404808,0.00266704056,0.143551812,0.00326212472,0.818361342,0.0321576819,0.0105178766,0.0305741429,0.00326796737,0.93402946,0.0216106139,3,0.83984375
H,57,1599,0.162554219,-0.678092599,-2.32298064,-0.321210712,0.252497852,-0.835935354,0.252498209,-0.306902409,0.113557547,0.597391307,0.982698858,-1.37519693,-0.507860422,-1.71331906,-8.3278017,-0.849788964,1.37824059,-1.32368219,-1.15211034,0.402954757,0.107958667,0.00636399351,0.407222897,0.885487437,-0.0594637468,-0.878532052,-0.0594638959,0.822132468,-1.39134407,1.87670588,-0.603924096,-1.26463246,0.564925253,2.73818684,0.159516692,-0.874390543,0.59523344,-0.942177892,-0.591175318,1.32769108,-1.03939939,-0.0900792256,1.91405785,1.16785038,-1.07119811,-0.946922541,-1.07119954,0.314628065,-1.69906223,1.10855234,0.158612266,0.0729739219,-0.0657929927,-1.14706993,-4.85570955,-0.968257427,0.689991832,-0.916952193,0.227090761,0.422771156,0.958059251,0.120569743,0.996963441,-0.315974355,0.850392997,-0.566127598,-0.343672752,0.749111831,-0.380716175,0.00199960242,0.255614311,0.0020001384,0.72519809,0.0151878418,0.0108197229,0.0432405025,0.00299841585,0.920223475,0.022717962,3,0.80859375
H,58,1624,0.225107014,-0.491994292,-1.67808735,0.185189754,0.336403131,-0.802488148,0.33640337,0.0497201607,-0.10192766,0.743079364,0.768244505,-1.33785295,-1.22657239,-2.75727081,12.3872232,-0.817651391,1.45460045,-1.25674736,-1.13925707,0.421577603,0.0321223177,-0.189642131,0.148550555,0.211085811,-0.101918727,-0.8569206,-0.101918712,0.265141159,-1.36771715,1.92567849,-0.856363237,-1.00780749,0.115776099,-0.292386711,0.159516692,-0.852897167,0.737233281,-0.959933519,-0.424194992,0.848608613,-0.916306973,0.469310045,1.62179351,1.32758653,-1.01875567,-0.921239078,-1.01875687,0.502557814,-2.26349711,1.11319292,-0.0147299077,1.02248144,0.645092905,-0.811673939,-4.85570955,-0.941507101,0.452173144,-1.15060461,0.795787573,0.808894157,1.12317073,0.186609194,1.18280041,-0.655649126,0.786396742,-0.738821864,-0.362350702,0.60753715,-0.406781137,0.00205682428,0.185447529,0.0128656337,0.78064537,0.018984694,0.011027121,0.0318903215,0.00405254448,0.932671726,0.0203583371,3,0.76171875
H,59,1649,0.183550283,-0.468759775,-1.67808735,0.185189754,0.278522968,-0.783997893,0.278522998,0.406342715,0.0184132084,0.665938199,0.940756917,-1.60794342,-0.612321496,-1.50452864,12.3872232,-0.798690557,1.26172602,-1.04565632,-1.10236728,0.708070636,0.00274641882,-0.500949025,-0.110121809,0.136152297,-0.142833188,-0.804783046,-0.142833546,-0.29185015,-1.40519655,2.23677301,-1.64031577,-0.748273075,0.110624127,0.275845826,0.159516692,-0.802670777,0.751159072,-0.926469684,-0.589243829,0.846115947,-0.725321412,0.75466305,2.20632219,1.64705873,-0.879888117,-0.878071189,-0.879889488,0.502557814,-2.09779,1.00088263,0.0558590926,0.761873186,0.707123697,-0.476277977,-4.85570955,-0.89918524,0.333428711,-1.03763437,0.312333882,1.21559417,1.30982983,0.169303745,1.32828355,-0.669655204,0.595940709,-0.723657489,-0.529163063,0.428764164,-0.577422798,0.00197072886,0.0817978308,0.0120989056,0.882364929,0.0217675827,0.0105920676,0.0242826752,0.00438550487,0.940070391,0.0206694175,3,0.86328125
H,60,1674,0.131565422,-0.513607681,-1.67808735,0.590310156,0.241256207,-0.768034458,0.241256312,0.0497201607,0.0180579256,0.629886806,1.22078872,-1.70023489,0.0474800467,0.792165279,12.3872232,-0.783779085,1.17150223,-1.17388237,-1.24114585,2.31601763,-0.000950227724,-0.56245774,-0.23945798,-0.238515273,-0.0723612532,-0.743833721,-0.0723612085,-0.403248399,-0.869947553,1.30956507,-0.938773096,-0.354231238,0.41234979,2.1699543,0.159516692,-0.742851853,0.651374817,-0.970309973,-0.366437912,1.00198448,-0.604053378,0.708209157,1.18339705,1.48732257,-0.737986565,-0.841325819,-0.737987995,1.06634712,-1.78264284,1.03804076,0.124341018,0.221865162,0.846901894,-0.14088203,9.32288647,-0.862174273,0.191079035,-0.749958932,-0.163618878,1.54374981,1.44113386,0.136250556,1.41600978,-1.14838386,0.460747004,-1.02813792,-0.821736753,0.325421751,-0.868481994,0.0015733738,0.0279197879,0.00449029449,0.952543318,0.0134731578,0.00815620273,0.0162283666,0.00326738018,0.955938637,0.0164094791,3,0.9140625
H,61,1699,0.0821366981,-0.415070355,-1.19441748,0.38774994,0.145011395,-0.777918518,0.145011589,0.0497201607,-0.460665971,1.10385048,0.491033852,-1.63389516,-0.357199997,-1.08694792,12.3872232,-0.793294311,1.23372209,-1.1313777,-1.15524662,1.63741314,0.00399818411,-0.698675931,-0.110121809,-0.388382316,-0.0674989522,-0.736050189,-0.0674989074,-0.403248399,-0.644630134,1.06985772,-0.722057104,-0.414124638,-0.0513919555,-1.80767345,0.159516692,-0.735829115,0.834877491,-1.00354075,-0.392771691,0.618567228,-0.519538105,0.248900667,0.160471991,1.16785038,-0.623817086,-0.824809134,-0.623818576,1.06634712,-1.39370227,1.39428687,0.00139320095,-0.0358497575,0.998532355,-0.308580011,9.32288647,-0.847151697,0.382375211,-0.748154998,-0.261217594,1.17744982,1.61426997,0.101590537,1.54736912,-1.21396351,0.358459145,-1.06930149,-0.91828984,0.258180648,-0.980223894,0.0126272552,0.0284527838,0.0305355787,0.901944876,0.026439419,0.0109554706,0.0179618523,0.00527054258,0.947268367,0.018543832,3,0.55859375
H,62,1724,0.196542591,-0.227638632,-0.549524248,0.286469847,0.256230682,-0.736914635,0.256230801,0.228031442,-0.443836242,1.04955971,0.291918069,-1.38273287,-0.408870578,-0.878157556,12.3872232,-0.752241671,1.25780213,-1.14645958,-1.13480532,1.3011049,-0.129688323,-0.731947899,-0.110121809,-0.0886482522,-0.201930702,-0.751084805,-0.201930627,-0.29185015,-0.55191952,1.10474682,-1.23219728,0.00965041015,0.260471463,1.60172176,0.159516692,-0.749702096,0.70256114,-0.963798523,-0.395863682,0.926847219,-0.344543815,0.297468424,-0.424056619,1.16785038,-0.408901811,-0.785794735,-0.40890336,1.25427687,-0.824728072,0.95316267,0.320607901,-0.166399255,1.19032788,0.362211913,9.32288647,-0.808705032,0.741394341,-1.19242227,-0.424596429,1.71868336,1.60654044,0.222426564,1.57969415,-1.05228519,0.308136523,-0.937982678,-0.998533428,0.0686948672,-1.08637738,0.0202887394,0.0322302878,0.00863892399,0.90473187,0.034110155,0.010606504,0.018658869,0.00409629894,0.943804801,0.022833515,3,0.9609375
H,63,1749,0.225311697,-0.0155216791,-0.227077603,0.590310156,0.254371434,-0.71993649,0.254371494,0.406342715,-0.395625353,0.889524043,0.71609354,-1.50179827,-1.15874565,-1.50452864,-8.11642361,-0.73587364,1.32218957,-1.04329002,-1.02972519,0.268454731,-0.213167369,-0.798919797,-0.368794173,-0.0886482522,-0.29788366,-0.756666005,-0.297884047,-0.626044929,-0.675538003,1.22866964,-0.989661694,-0.400505662,0.401029617,2.73818684,0.159516692,-0.755711734,0.698803127,-1.02852142,-0.451723993,1.14210999,-0.163680345,0.156802848,-0.716320932,1.0879823,-0.117672332,-0.744401276,-0.11767374,1.44220662,-0.539693117,0.927654684,0.597990513,-0.573867679,0.561725199,-0.643975973,-4.85570955,-0.766451478,1.05455124,-1.24543619,-0.270837784,1.07934391,1.57414663,0.269665956,1.53487968,-0.927417457,0.197176516,-0.826197565,-1.03041983,-0.100477599,-1.15532291,0.0523941107,0.0463562906,0.00914629363,0.841147721,0.0509554967,0.0159139149,0.0258976594,0.00565608451,0.920924902,0.0316074193,3,0.84375
H,64,1774,0.185927764,-0.0902752578,-0.549524248,0.489030033,0.223930821,-0.719041109,0.223931134,-0.12859112,-0.500965834,0.90463078,0.688346326,-1.3821584,-0.380027026,0.165794224,12.3872232,-0.734618306,1.21862006,-1.20406771,-0.854409516,1.12506866,-0.183529019,-0.806401253,-0.368794173,-0.238515273,-0.268332809,-0.724707305,-0.268333197,-0.403248399,-0.621395886,1.23224747,-1.08174324,-0.251847416,0.138215527,0.0864349753,0.159516692,-0.724723995,0.780710578,-1.02888477,-0.444486499,0.836869717,-0.17158173,-0.0884393901,-1.30084956,1.16785038,-0.0938906074,-0.737461448,-0.0938917696,1.06634712,-0.32319808,0.765301168,0.892227173,-1.06444561,1.35665047,1.03300381,9.32288647,-0.760743439,0.804347634,-1.2250371,-0.551089585,1.82953811,1.56999874,0.233831808,1.51084089,-1.20062876,0.174833715,-1.03488016,-1.09544218,-0.0831062645,-1.22345912,0.0524191372,0.0181939881,0.0191699676,0.875255108,0.0349617898,0.0126417307,0.0190788656,0.00443312619,0.938554645,0.0252916198,3,0.8203125
H,65,1799,0.178173736,-0.0456635579,-0.871970832,0.792870343,0.245467231,-0.744715214,0.245467275,-0.12859112,-0.436898708,0.746603251,1.11992788,-1.49352539,-0.232359663,0.792165279,-8.11642361,-0.760588944,1.18988431,-1.2066164,-1.0001713,1.97860956,-0.145704746,-0.492658794,-0.110121809,0.286019325,-0.237736106,-0.761465907,-0.237736225,0.265141159,-0.646048605,1.0664109,-0.295229822,-0.795969784,0.304425716,2.35936499,0.159516692,-0.760377407,0.769327223,-1.07172894,-0.400464863,0.924987674,-0.263040096,-0.341614246,-1.00858521,1.00811422,-0.18034862,-0.772353411,-0.180350214,0.690487623,-0.194973424,0.669130027,0.502692878,0.138978347,1.51964819,1.03300381,-4.85570955,-0.790039241,0.962339699,-1.41938651,-0.641798973,1.73041236,1.481161,0.215843335,1.43311727,-1.31799722,0.235125005,-1.12599874,-1.32352674,0.000104753621,-1.43040526,0.0680768937,0.0194495246,0.0111774597,0.875537336,0.0257587992,0.013161636,0.0205170289,0.00443895254,0.936216652,0.0256657936,3,0.96484375
H,66,1824,0.0849607736,-0.116562359,-0.71074754,1.09671056,0.13252452,-0.783392072,0.132524759,-0.306902409,-0.704863071,0.969882786,0.857592106,-1.47665048,-0.189604238,1.0009557,12.3872232,-0.796656013,1.15237856,-1.21494055,-0.922014892,1.89471197,-0.0869351774,-0.544071317,-0.110121809,0.0612187833,-0.164856151,-0.775240839,-0.164856568,0.0423446298,-0.49234736,0.733477354,-0.0625671819,-0.576135755,0.163891196,-0.481797546,0.159516692,-0.773269176,0.74157232,-0.981559396,-0.382076591,0.848643243,-0.254911304,-0.177624807,-0.131792307,1.24771845,-0.221204326,-0.781160474,-0.221205696,0.314628065,-0.272043914,0.506236374,1.08999133,-0.380404294,1.37302101,0.362211913,9.32288647,-0.803900182,0.979735255,-1.5232259,-0.103405878,1.62522423,1.3593744,0.134041309,1.26255727,-1.02858973,0.161845118,-0.922747731,-1.17567086,0.0165545885,-1.29456353,0.0363271497,0.0118599571,0.0230165198,0.899555922,0.0292404275,0.0103218583,0.0168920681,0.00356235192,0.94811517,0.0211086124,3,0.8671875
H,67,1849,0.144285351,-0.113429666,-1.03319418,0.792870343,0.188268572,-0.785368443,0.1882689,-0.12859112,-0.194617167,0.458216757,1.58971572,-1.53422034,-0.950652242,-1.50452864,-8.11642361,-0.80030179,1.25846243,-1.06065059,-1.00168133,-0.129923105,-0.11033424,0.0108012604,-0.110121809,0.810553908,-0.241663054,-0.817566454,-0.241663054,0.710734189,-1.12458694,1.31179702,0.365258723,-1.44519126,0.190048397,0.0864349753,0.159516692,-0.814171851,0.715418696,-0.976307213,-0.390157104,0.782404184,-0.299596399,0.221404985,0.452736288,1.80679488,-0.316738844,-0.801474154,-0.316740096,0.690487623,-0.798019588,0.691560566,0.710453153,0.333713412,0.501033723,0.0268159546,-4.85570955,-0.824216068,1.00048912,-1.30397379,-0.241905779,1.18540514,1.19320321,0.181498379,1.13687074,-0.751924872,0.2375312,-0.723590314,-1.22756994,0.0415684953,-1.32858169,0.0311642289,0.0576261468,0.0313992612,0.805679917,0.0741304681,0.0157003868,0.0332308747,0.00598144298,0.910707891,0.0343793221,3,0.90625
H,68,1874,0.105936266,-0.307771236,-1.67808735,0.995430529,0.185088277,-0.810373664,0.185088679,-0.485213697,-0.473778844,0.861576498,1.55510628,-1.87582076,-1.35519958,-2.96606112,12.3872232,-0.824670672,1.44921386,-1.18332887,-1.10560715,-0.287133813,-0.0579603389,-0.0166763905,-0.110121809,0.66068691,-0.224794179,-0.836607337,-0.22479485,0.599335909,-1.31719458,1.7333988,-0.472741395,-1.04201543,-0.14414075,-1.99708426,0.159516692,-0.832889497,0.884612024,-1.02678502,-0.48758173,0.543375969,-0.378881544,0.319371939,0.745000601,1.88666296,-0.434807032,-0.826021433,-0.434808314,0.878417373,-1.15364516,1.12585688,-0.0224626064,0.200939119,0.70633167,-0.14088203,-4.85570955,-0.84803021,1.01795197,-1.36365318,-0.25138554,1.3080467,1.26723003,0.138313785,1.20059681,-0.875377536,0.26856783,-0.825190067,-0.940916777,0.122883953,-1.03015804,0.0252204519,0.0360851549,0.0572303943,0.826290905,0.0551730469,0.0128547512,0.0220188592,0.00591548951,0.936586559,0.0226243101,2,0.640625
H,69,1899,0.103477538,-0.213879451,-1.51686406,1.09671056,0.180819243,-0.828266442,0.180819154,-0.841836274,-0.743537128,1.03924537,1.25615919,-1.86359715,-1.52175534,-1.71331906,-8.11642361,-0.842590451,1.44091547,-1.06988788,-1.09199691,-0.533361733,-0.0681930557,0.309172243,-0.110121809,0.810553908,-0.191293553,-0.876227677,-0.191293612,1.15632725,-1.15517986,1.21767879,0.479450613,-1.34312177,-0.249576703,-3.89119267,0.159516692,-0.871707797,0.867709339,-1.03626001,-0.246252626,0.373857707,-0.344049126,0.694032431,1.32952917,1.48732257,-0.470270693,-0.832145214,-0.470271945,1.25427687,-1.38431966,0.840347648,-0.126357988,0.19217065,0.173363492,-1.65016389,-4.85570955,-0.854162812,0.397070587,-0.422281623,-0.168433204,0.686871648,1.15942991,0.14011839,1.08908546,-1.00563371,0.240805387,-0.912769914,-1.01028788,0.0919159353,-1.10628641,0.0182517767,0.0194928329,0.115827844,0.78463918,0.0617883466,0.0167530365,0.0242274664,0.0081771249,0.925894499,0.0249479096,3,0.890625
H,70,1924,0.11632324,-0.161666885,-1.03319418,0.995430529,0.165756881,-0.84645611,0.165757149,-0.485213697,-0.904560804,1.18564534,1.16019261,-1.92293739,-0.997337341,-1.50452864,-8.3278017,-0.8609007,1.40027857,-1.11902308,-1.28246295,-0.0387482159,-0.076016441,0.433464408,0.148550555,1.33508849,-0.147808358,-0.923382342,-0.147808552,1.37912381,-1.40835011,1.40813458,0.239106342,-1.09819734,-0.114263587,-3.13354945,0.159516692,-0.917905331,0.777145684,-0.981279254,-0.244530633,0.571642518,-0.345739901,0.762761533,1.18339705,1.48732257,-0.440747052,-0.847149014,-0.440748274,1.06634712,-1.13519728,0.892452598,0.11124678,-0.238357782,0.495497823,-1.31476784,-4.85570955,-0.868130207,0.345520318,-0.625419736,-0.215308771,0.648435354,1.04554772,0.151328489,0.983995974,-0.553428054,0.251393914,-0.594124913,-0.626805067,0.0902308077,-0.726380527,0.019586375,0.0284415223,0.0878564194,0.771510243,0.0926054269,0.0130616585,0.0231640767,0.00544575555,0.932782352,0.0255461298,3,0.828125
H,71,1949,0.117479429,-0.0723936409,-0.549524248,0.590310156,0.140671432,-0.857168734,0.140671968,-0.306902409,-0.879855514,1.10584033,0.51072526,-1.42513263,-0.698383272,-0.460576862,-8.3278017,-0.872245729,1.204584,-1.051121,-1.18674505,1.39580011,-0.0750342235,0.341711879,-0.110121809,1.18522155,-0.133841008,-0.946610987,-0.133841023,1.15632725,-1.24170959,1.24222684,0.358334452,-1.14008117,-0.416768402,-5.59589052,0.159516692,-0.940090299,0.806079268,-0.87561816,-0.23771812,0.111270823,-0.350838184,0.851848423,1.18339705,1.32758653,-0.439750969,-0.855559468,-0.43975237,1.63013637,-1.15106404,0.796509147,0.257835925,-0.909816921,0.354609847,-0.811673939,-4.85570955,-0.877817631,0.42771408,-0.508395195,-0.412208736,0.830271125,0.854269385,0.151767075,0.797376752,-0.198021576,0.256021708,-0.345385611,-0.363516986,0.0945543945,-0.466066778,0.0144875888,0.0375831202,0.154730648,0.672358334,0.120840274,0.0216515381,0.0403543189,0.0103742788,0.886424541,0.0411952287,3,0.9296875
H,72,1974,0.182737038,0.113175079,-1.03319418,1.19799066,0.215947613,-0.869916499,0.215947866,0.584654033,-1.03572857,1.25401092,0.419746727,-1.38932347,-0.320240706,0.165794224,-8.3278017,-0.884497046,1.13414192,-1.14423561,-0.983817279,1.36052907,-0.201885477,0.735386968,0.148550555,1.63482261,-0.314049542,-1.02976155,-0.31404987,1.60192025,-1.59516859,1.59973562,0.244691879,-1.30549276,-0.091295369,-2.37590599,0.159516692,-1.02135623,0.79585278,-1.00504303,-0.22582294,0.602261722,-0.115251973,1.2453506,1.32952917,1.00811422,-0.19000338,-0.838626564,-0.190004826,1.81806612,-1.00505972,0.526629448,0.262226194,-0.13792631,1.05070317,0.194513932,-4.85570955,-0.858928442,0.384401023,-1.0321393,0.027971942,1.23959339,0.815934956,0.238025144,0.759720445,0.0554724932,0.132725582,-0.0836944133,-0.215704829,-0.131728053,-0.333200127,0.0154375797,0.0236502308,0.0696473941,0.763762116,0.127502739,0.0129292272,0.024072336,0.00408465508,0.920881093,0.0380326062,3,0.90625
H,73,1999,0.186047286,0.320352286,-0.71074754,1.80567122,0.186871991,-0.899000704,0.186872527,0.762965322,-1.16308963,1.16981673,0.56248641,-1.44706368,-1.10200644,-0.878157556,-8.3278017,-0.913541019,1.12496221,-0.968210042,-0.801420033,0.352595538,-0.257264674,1.07135415,0.795231462,1.63482261,-0.3783786,-1.10017526,-0.378379136,1.26772547,-1.49614179,1.19033456,-0.376869917,-0.0397134908,-0.624453545,-6.35353374,0.159516692,-1.09006989,0.654592156,-0.721791983,0.265302598,-0.183762014,0.0266444776,1.16222322,1.03726494,0.848378122,-0.0567000993,-0.840355396,-0.0567016304,2.00599599,-0.596404731,0.449222684,1.02226567,-0.655248284,0.563703001,-0.14088203,-4.85570955,-0.862540901,0.818482876,-1.15264511,-0.386445105,1.3355062,0.65862,0.259241849,0.589280725,0.000349414331,0.0370478146,-0.0858802944,0.0328984261,-0.255463541,-0.0794314966,0.026339259,0.0117758485,0.254142523,0.404530108,0.303212255,0.0240088124,0.0340236425,0.00826271623,0.850548506,0.0831562951,3,0.8203125
H,74,2024,0.158845022,0.29942745,-0.871970832,1.70439112,0.139782012,-0.906985283,0.139781892,1.29789913,-1.15745199,1.14213848,0.132136106,-1.03382289,-1.63437366,-1.50452864,-8.3278017,-0.921485901,1.14515805,-0.851943135,-0.82650584,-0.601467609,-0.229316503,1.1457628,0.665895283,1.78468966,-0.327535391,-1.10031772,-0.327535301,1.15632725,-1.4864608,1.06032646,-0.186721355,-0.0225074068,-0.747347593,-5.97471189,0.159516692,-1.08931482,0.726293623,-0.843267262,0.0369394049,0.00829657633,0.00166189403,1.05905652,0.745000601,0.768510103,-0.0882937536,-0.846221566,-0.0882956386,1.63013637,-0.390986443,0.0342923887,1.43557525,-0.466551751,0.990185142,-0.14088203,-4.85570955,-0.867636561,0.465810835,-1.07918203,0.315168262,1.2322818,0.564827263,0.231734648,0.490256965,0.00464905752,0.0346101709,-0.0970480442,-0.177200764,-0.226801962,-0.300297499,0.0309339389,0.0110686608,0.262248784,0.368307292,0.327441275,0.0245800018,0.0364412703,0.00803922024,0.837578535,0.0933609456,3,0.67578125
H,75,2049,0.0127967438,0.312894046,-0.549524248,1.29927075,0.0156327114,-0.928526759,0.0156329963,1.47621047,-1.29712379,1.06091607,0.0485121347,-0.902117193,-0.961705923,0.165794224,-8.3278017,-0.942518055,0.906522453,-0.735997856,-0.56797421,0.178833395,-0.0991453677,0.937051058,1.44191229,1.63482261,-0.512916028,-1.06116807,-0.512915909,0.822132468,-1.19338167,0.70549655,-0.320107698,0.747596681,0.654356599,-0.102975868,0.159516692,-1.05200517,-0.0784474239,-0.500689805,0.403391033,-1.56993878,-0.0902180746,0.65810442,0.160471991,0.44903785,-0.127839684,-0.854674935,-0.127841234,1.25427687,-0.33620435,0.215463519,0.654381275,0.476677746,1.23345006,0.362211913,9.32288647,-0.87678194,0.453515232,-1.13973296,0.206511438,1.2663182,-0.293973327,0.0892904922,-0.377265632,-0.495204508,-0.00865936093,-0.526571393,0.177104548,-0.110303529,0.0719445571,0.0297070742,0.0109728184,0.0139676854,0.825124562,0.12022794,0.0147966575,0.0302815605,0.00351953181,0.906225801,0.0451764539,3,0.99609375
H,76,2074,-0.578252017,-0.505717516,-1.19441748,1.29927075,-0.527515411,-0.92147541,-0.527515292,1.6545217,-0.818477988,0.677727997,0.709414303,-1.06000197,-0.629153371,0.792165279,-8.3278017,-0.935784698,1.0033319,-1.1422298,-0.59946835,1.3334533,0.303688407,0.272897005,0.795231462,0.585753381,-0.539089262,-0.60734874,-0.539089084,0.153742895,-0.863990903,0.545379698,-0.751171708,1.46107054,-2.22175241,-10.899394,-21.3905315,-0.61046201,0.552762568,-0.183182955,-0.0239230655,-4.87846327,-0.264247209,-0.209037259,0.0143398419,0.209433675,-0.368261129,-0.765140474,-0.368262559,1.25427687,0.106152676,0.161909074,1.01264739,0.617649555,2.44439578,1.8714937,9.32288647,-0.787813663,0.422378689,-1.43584108,-0.315014094,1.68461716,-1.40329981,-0.480780274,-1.49423516,-0.606728435,-0.360463887,-0.729633272,0.0547128804,0.169841155,-0.0564227104,0.0118852863,0.000366684108,0.849028945,0.128998041,0.00972116739,0.0308930352,0.0336583219,0.695551217,0.226868004,0.0130293518,3,0.99609375
H,77,2099,-0.98685956,-1.09229946,-1.35564077,1.29927075,-0.944111049,-0.888400078,-0.944111049,1.47621047,-1.2278955,1.22315729,0.4101969,-1.4740684,-1.05217981,-1.29573834,-8.3278017,-0.903064489,1.23202062,-1.10393131,-0.971977413,0.959866703,0.63218224,-0.438127607,1.05390382,0.136152297,-0.298940301,0.0145357875,-0.298940927,-1.40583277,-0.163993329,0.0443663262,-1.37862551,2.1593051,-2.83409929,-11.6570377,-21.6038971,0.0546732619,0.653523505,-0.690985799,-0.220272586,-2.4473238,-0.691937029,-0.750249326,-0.131792307,0.44903785,-0.775340199,-0.715310216,-0.775341809,0.690487623,-0.0945837274,0.270566195,1.22283661,-0.0929734707,2.43525338,1.8714937,9.32288647,-0.738576531,0.559441209,-1.53307974,-0.243846759,1.92526364,-1.44768858,-0.93358314,-1.57161236,-0.750230312,-0.411544204,-0.912649035,-0.277870774,0.630240917,-0.379698366,0.00338574965,0.000245872972,0.905702174,0.0895020813,0.00116415508,0.00879869331,0.00946299173,0.929915965,0.0485106185,0.00331182708,3,0.99609375
H,78,2124,-1.39471281,-1.34522951,0.0953690112,1.40055084,-1.33996701,-0.860200107,-1.33996689,1.1195879,-1.55769277,1.2227658,-0.240279898,-0.752885342,1.58018565,6.42950487,-8.11642361,-0.874031544,0.503554642,-1.12342143,-0.635592639,4.02854967,0.825400174,-1.06015706,0.148550555,-0.688116372,0.238021284,0.914235771,0.238021061,-2.51981544,0.0373099335,-0.038735453,-1.55889833,2.23417759,0.797657609,2.35936499,0.799617112,1.02308345,-0.153844357,-0.719329655,0.365147382,-3.42950726,-0.789728284,-1.17426527,-0.716320932,0.0496975631,-0.914896011,-0.556643426,-0.914897263,0.502557814,0.114550777,0.203023478,-0.202213377,0.646056294,0.512916744,0.194513932,-4.85570955,-0.581074476,0.963362873,-1.18073225,-0.594173849,0.96296519,-2.16834497,-1.39207423,-2.11775374,-1.19969857,-0.765618145,-1.14787805,0.57724756,0.781456649,0.456051826,0.000237570333,0.00197224598,0.0387428589,0.958773136,0.000274144666,0.0116340229,0.0258964691,0.365540892,0.554751456,0.0421771705,3,0.99609375
H,79,2149,-1.07507908,-1.29436862,0.0953690112,0.69159025,-1.13220155,-0.620803893,-1.13220155,1.1195879,-0.919712186,1.06501174,-1.51142621,-0.553406179,1.16490722,7.47345686,-8.3278017,-0.635425031,0.0499213412,-0.138225704,-1.08329594,4.5883441,0.542689025,-1.08105457,-0.110121809,-0.688116372,0.202738196,1.37517273,0.202738017,-2.40841699,0.259068698,-0.823925078,0.210780501,1.90521181,-1.50679529,-8.05823135,-21.3905315,1.42842865,0.649260342,-0.837261617,0.584518552,-3.87382317,-0.272377044,-0.814664781,-0.570188761,-0.429510802,-0.495939642,-0.189315334,-0.495941103,-0.0612314492,0.952558577,-0.710681498,-0.368353158,0.969977915,-0.144965634,-1.65016389,7.13032007,-0.217616424,0.716883838,-1.08052695,0.455643505,0.50488174,-1.76030493,-0.987212896,-1.82262528,-0.883561134,-0.823246717,-0.950673878,0.830710948,0.262192577,0.78171432,0.000358173565,0.000136205927,0.944504499,0.0546560474,0.000345101202,0.000529617362,0.000583536341,0.996939301,0.00151377451,0.000433874899,3,0.99609375
H,80,2174,-0.941543698,-1.0841527,0.901485562,0.489030033,-1.0504936,-0.415558249,-1.05049348,1.29789913,-1.21185195,1.14876938,-1.33228302,-1.11006761,-3.49332643,-2.33968997,-8.11642361,-0.431167454,0.515306771,1.11104095,-0.776426673,-6.54529238,0.492422342,-0.850446224,0.148550555,-1.28758454,0.369623542,1.95325077,0.369623303,-2.63121367,0.273221791,-0.843854249,-0.190396503,2.2638123,-1.15119767,-6.35353374,-21.3905315,2.0016222,0.594031513,-0.886200726,0.143312961,-3.20457053,-0.300107121,-0.849720359,-0.570188761,-0.429510802,-0.406941086,-0.0218838006,-0.406942397,0.314628065,0.81449616,-0.268153042,-0.8389498,1.14358592,0.550752401,-0.14088203,9.76139927,-0.0469421744,0.609221637,-0.876283348,-0.4285281,0.770302832,-1.40310025,-0.848901272,-1.53726315,-0.725751281,-0.669558227,-0.854838312,1.27479017,0.265407354,1.24595559,0.0264878906,0.000685064413,0.955116332,0.0166197177,0.00109100901,0.000608736242,0.000648130139,0.996854663,0.00141144788,0.000477036258,3,0.99609375
H,81,2199,-0.865078807,-1.1461736,0.579038918,0.69159025,-0.939430475,-0.333718866,-0.939430296,1.29789913,-0.923406243,1.23545671,-1.74736559,-0.80364269,-1.56073391,-1.50452864,-8.3278017,-0.351551443,0.649354398,0.125400558,-1.05945694,-1.81744313,0.44301644,-0.353534192,0.92456764,-1.13771749,0.421965837,2.08164215,0.421965629,-2.18562055,0.332476556,-1.08926213,-0.148064494,2.71857595,-0.656604648,-4.64883614,0.799617112,2.09165883,0.32702437,-0.857166231,0.273005992,-4.32793188,-0.256815195,-0.977672875,-0.424056619,-0.429510802,-0.313997805,0.0488053784,-0.313999563,-0.0612314492,0.815804183,-0.121718876,-0.859913468,1.22260141,0.76140666,0.0268159546,9.90757084,0.0226385631,0.546201825,-0.622594297,-0.882701278,-0.619706035,-1.33566773,-0.765519619,-1.47489488,-1.17068946,-0.627405047,-1.08285224,1.24685538,0.214740112,1.22218359,0.0155761652,0.000923550979,0.960784554,0.0218496248,0.000866112765,0.00045413879,0.000480946881,0.997633457,0.00107833161,0.000353048032,3,0.99609375
H,82,2224,-0.78947562,-0.98448956,0.901485562,0.69159025,-0.852561176,-0.290674418,-0.852560818,1.1195879,-0.643037498,0.820788205,-1.41052139,-0.503045022,-0.419965893,0.583374918,-8.3278017,-0.305605769,0.427812427,-0.137536153,-0.89348805,0.195230544,0.329608172,0.0286111906,1.05390382,-0.837983429,0.331088305,1.97001886,0.331088156,-2.18562055,0.059478689,-0.911479592,-0.935797632,3.4298501,-0.593391061,-3.89119267,-21.3905315,1.98689759,0.39967072,-0.836931348,0.436315924,-2.03670382,-0.0291973725,-0.54869473,-0.424056619,-0.828851104,-0.048252143,0.181086838,-0.0482535958,-0.625020742,0.906801224,-0.650022745,-0.657679915,0.898434162,0.540321469,-0.476277977,-2.66314316,0.155520931,0.270178616,-0.55460763,-0.405867577,0.0306628067,-1.27927148,-0.663930237,-1.42403114,-0.925855756,-0.71718353,-0.92255187,1.66587794,0.00598372659,1.74213731,0.0075499271,0.000960112724,0.97361958,0.0156400613,0.00223035295,0.000533894519,0.000544193666,0.997299969,0.00118384347,0.000438097108,3,0.8515625
H,83,2249,-0.721623123,-1.03656769,0.579038918,0.286469847,-0.73699671,-0.233881414,-0.736996591,0.584654033,-0.226851374,0.68270278,-2.00313139,0.0414300561,-0.985900223,-0.0429961346,-8.3278017,-0.25300771,0.568823934,-0.149150014,-0.694669724,-0.685624123,0.162917852,0.575666785,1.95925701,-0.688116372,0.105948932,1.89553404,0.105948515,-1.40583277,-0.198242441,-1.10424566,0.443813145,1.98081923,1.00435388,0.275845826,-0.480583727,1.8487699,-0.389509201,-0.786024809,1.21237397,-0.991275549,0.330934674,-0.363478333,-1.15471733,-1.22819138,0.426255703,0.433535963,0.426253945,-0.812950492,1.08091772,-0.446032792,-1.40144873,1.45790207,-0.0291377194,-2.6563518,-2.66314316,0.400744438,0.260163665,0.176802233,-1.02629566,-0.904913366,-1.20469832,-0.552449942,-1.36336422,-0.266095579,-0.89286387,-0.453878313,1.78249788,-0.303477913,1.98960042,0.0673470125,0.00464274595,0.83807838,0.0814861953,0.00844558887,0.0019181004,0.00163307507,0.989459872,0.00503282389,0.00195612945,3,0.9609375
H,84,2274,-0.535391986,-1.02716959,-0.71074754,-0.523770869,-0.527335048,-0.10958118,-0.527334929,-0.12859112,0.224116564,0.253124267,-1.05294824,-0.201119021,-0.0743323341,0.583374918,-8.3278017,-0.127031147,0.443266898,-0.187899321,-0.931443512,0.452951729,-0.008329303,1.00564826,1.82992089,-0.613182843,-0.0408808365,1.74848282,-0.0408805013,-0.960239708,-0.280147702,-1.34184921,0.457952112,1.58468568,0.140242055,-1.80767345,0.159516692,1.70113635,-0.607587039,-0.0471727736,1.27154183,-1.2086066,0.51408267,-0.191607177,-1.44698167,-0.748983026,0.55472666,0.55980438,0.554725468,-0.812950492,0.901841283,-0.32753247,-0.90728724,0.402171195,1.03552687,0.194513932,7.27649117,0.526899219,0.224057689,-0.491986185,-0.619190037,0.599332213,-1.23958933,-0.344160497,-1.37020934,-0.44618386,-0.842010021,-0.502380371,1.21992195,-0.486763984,1.34553206,0.0138768097,0.000719295174,0.972502232,0.0109350896,0.00196648785,0.00148146134,0.00109583931,0.99364388,0.00267293584,0.00110591645,3,0.99609375
H,85,2299,-0.853799462,-1.23937356,-0.71074754,-0.219930619,-0.823922038,-0.314663559,-0.823921978,-0.663524985,-0.152687401,0.319148809,-0.413165182,-0.404883176,0.631767511,2.46248817,-8.3278017,-0.331270128,0.177404538,-0.333027393,-0.650991082,0.897748709,0.228823602,0.841157317,1.31257617,-1.36251795,0.231626853,1.959162,0.231626451,-1.07163799,-0.239734128,-1.12625861,0.0600457564,0.921094477,0.396948516,0.275845826,-2.18751812,1.93223405,-0.598947108,-0.0505815819,0.5082165,0.563523829,0.329556108,-0.39741075,-0.716320932,-0.589246929,0.355408579,0.440369368,0.355407178,-0.625020742,0.904315531,-0.528602719,-0.238706484,-0.605886281,1.17637956,1.20070183,-2.80931425,0.408333302,-0.0124289813,-0.0622741692,-1.43947363,1.34379995,-1.6692512,-0.686878443,-1.74544787,-0.401714027,-1.01493168,-0.57235384,0.729890168,-0.278157324,0.745815039,0.00484647509,0.00038264168,0.981882274,0.0123716714,0.000517041655,0.000673150993,0.000757172122,0.995888889,0.00204186793,0.000638988626,2,0.59765625
H,86,2324,-1.05196249,-1.37976336,-0.71074754,-0.422490805,-0.995247185,-0.444034934,-0.995247245,-0.485213697,0.699012101,-0.497456163,1.00885737,-0.340975642,-0.762685061,0.583374918,-8.3278017,-0.457017243,0.773476064,-0.757814884,-0.65062964,-0.420609921,0.254077524,1.05918908,1.70058465,-1.36251795,0.230316281,1.94600606,0.230315983,-1.40583277,-0.305158168,-1.55197442,0.755889177,0.243011475,-1.4479028,-8.05823135,-18.1900291,1.91708553,-0.97372216,1.42378283,0.864390671,-1.73572648,0.501349211,-0.280496478,-1.44698167,-0.988587201,0.546650171,0.542753875,0.546648741,-1.18880999,0.927508414,-0.625883758,-0.196852759,-0.757088959,1.75524426,2.20688963,-2.80931425,0.507538438,-0.183988273,-0.368849337,-0.789269388,2.00247335,-2.23004937,-0.873593509,-2.17035508,-0.274563342,-1.31657672,-0.515204728,0.958762228,-0.380598605,1.0607686,2.03551008e-05,5.94415496e-07,0.999973655,4.46511558e-06,9.63806201e-07,0.000299311941,0.000310094212,0.99845612,0.000691325055,0.000243163959,3,0.9921875
H,87,2349,-1.12927842,-1.37932205,0.0953690112,-1.03017139,-1.08016765,-0.396196008,-1.08016753,-1.02014756,0.481418818,-0.325867087,0.0259908531,-0.0762773901,0.519457221,3.92402077,-8.3278017,-0.413255781,0.416262686,-0.819824696,-0.314139128,2.09096384,0.19892402,0.830510914,1.70058465,-1.43745148,0.354112685,2.31814265,0.354112744,-1.85142577,-0.351826549,-1.19851744,0.418734193,0.492172122,-0.600528955,-4.64883614,0.372883499,2.3028338,-0.745726407,0.735507309,0.472517401,-0.399511516,0.72111088,0.121076792,-1.30084956,-1.22819138,0.784424186,0.911860883,0.784423172,-0.812950492,0.849603355,-0.437631607,-0.88639009,-0.562826574,-0.135078073,-3.49484158,9.32288647,0.873902738,-0.232675821,0.793855965,-0.914143085,0.360434115,-2.10490751,-0.928586066,-2.07607698,-0.249108285,-1.52781296,-0.485935837,0.883293927,-0.538270354,1.00467753,1.91289109e-05,1.47911032e-06,0.999940515,3.76177559e-05,1.19928654e-06,0.000279826578,0.000286698894,0.998540759,0.00066130812,0.000231347221,2,0.66796875
H,88,2374,-1.07212186,-1.40197134,0.256592333,-1.13145149,-1.04046357,-0.300663769,-1.04046333,-1.19845879,0.550480664,-0.22501412,-0.543441653,0.196628407,-0.687435269,0.792165279,-8.3278017,-0.314528793,0.370958984,-0.208573923,-0.492353827,0.300601721,0.234798074,0.534344673,1.18323994,-1.66225207,0.450982392,2.58366632,0.450982153,-1.96282399,-0.089836359,-1.5272857,1.04291081,0.151207253,-0.629086375,-3.70178199,-20.9637966,2.63604927,-0.733778,0.655915916,0.10717614,-0.17010197,0.572034419,-0.114697531,-1.44698167,-0.988587201,0.602445006,0.915163338,0.602443397,-0.249161214,0.933069646,-0.36385873,-0.449106902,-0.82739085,1.42515647,1.8714937,9.32288647,0.876640201,0.0069453544,-0.223298445,-1.05762351,1.92645192,-2.13768959,-0.886165857,-2.10183764,-0.516835809,-1.38011944,-0.658060253,0.835818052,-0.432531595,0.919175565,0.000278835854,1.28555585e-05,0.999655485,4.94053747e-05,3.37571623e-06,0.000284673646,0.000294416008,0.998520315,0.000668756315,0.000231827493,2,0.8984375
H,89,2399,-1.16329277,-1.41473341,0.0953690112,-0.827611148,-1.16208708,-0.338298589,-1.16208708,-1.02014756,0.441489697,-0.241723984,-0.0488077626,-0.249218449,-0.508958936,1.41853642,-8.3278017,-0.355711401,0.39547807,-0.21127215,-0.592269659,0.8800596,0.280611604,0.473882347,1.18323994,-1.7371856,0.497402728,2.70211577,0.497402221,-2.18562055,-0.0391881987,-1.34846377,0.205113783,1.09535062,-1.80112529,-9.38410759,-20.9637966,2.817981,-0.407451034,0.656291425,0.403522253,-1.82184625,0.557977974,0.0264770817,-0.716320932,-0.669114947,0.571492493,0.955010176,0.571490705,-0.0612314492,0.526906192,-0.177708521,-0.54935497,-1.19504511,-0.0650700182,-2.15325785,-3.39399862,0.917161465,0.450070083,0.0305997357,-1.33572805,0.803754687,-2.24181175,-0.987829983,-2.17248464,-1.69290984,-1.46614099,-1.37604249,1.08473349,-0.406825304,1.23573804,5.82832263e-06,2.91041999e-07,0.999991179,2.67375481e-06,1.53480585e-07,0.000259231805,0.000266471878,0.99864465,0.000619165716,0.000210436236,2,0.76171875
H,90,2424,-1.28806138,-1.52065313,0.256592333,-0.827611148,-1.27040637,-0.429985762,-1.27040648,-1.02014756,0.401971996,-0.237224117,-0.416869074,0.130947158,0.0168509874,2.25369787,-8.3278017,-0.444928259,0.250450999,-0.260834843,-0.318926483,1.67437506,0.332165033,0.297047079,1.18323994,-1.7371856,0.553374767,2.66116929,0.553374231,-2.40841699,0.198119864,-1.6873225,1.20370543,0.828473866,0.12737985,-2.94413853,0.372883499,2.86291671,-1.05691719,0.519642115,0.522734582,0.00518945372,0.560552955,-0.0161575116,-1.15471733,-0.908719122,0.614109635,0.935033023,0.614107609,0.314628065,1.22030163,-1.01383817,0.537252247,-1.0582943,1.16983747,2.03919172,-4.70953846,0.896304905,0.279595107,-0.601640821,-0.897921085,1.86606324,-1.75086379,-1.12789845,-1.8324877,-1.16111243,-1.60212779,-1.07026112,1.75939488,-0.389607042,2.10114002,0.0002182764,1.29908849e-05,0.999595821,0.000167046892,5.79166044e-06,0.00026205054,0.000263786642,0.998632252,0.00061939226,0.000222496776,3,0.9140625
H,91,2449,-1.18735456,-1.44831979,0.0953690112,-1.23273158,-1.13304305,-0.361543775,-1.13304317,-0.663524985,0.316071898,-0.0145358043,-1.31196725,0.557711899,-0.561255813,1.83611715,-8.3278017,-0.379311472,0.514052451,-0.425700575,-0.572651982,1.41111445,0.205378339,0.418862283,1.18323994,-1.51238501,0.384637326,2.57262158,0.384637475,-2.18562055,0.0997063369,-1.62013841,1.08224058,1.19470727,-0.187196195,-3.70178199,0.372883499,2.71905565,-0.656996429,0.182589218,0.926212847,-1.18694592,0.766176641,0.0995777845,-1.30084956,-1.30805945,0.895062864,1.11969316,0.895061374,0.314628065,1.12435317,-0.777628362,0.127005652,-1.1881119,1.35824525,2.20688963,7.13032007,1.08023024,0.194095343,-0.419179112,-1.12531209,1.86102986,-1.48731327,-0.986783445,-1.64625037,-1.45969951,-1.61521566,-1.23655403,1.36512065,-0.563306689,1.64276218,0.000387035136,8.03372222e-06,0.999457061,0.000143089565,4.72914599e-06,0.000277246698,0.000271928089,0.998581409,0.000642391096,0.000227085271,3,0.9609375
H,92,2474,-1.24985266,-1.63154125,-0.0658542961,-1.53657186,-1.19392514,-0.420999587,-1.19392478,-1.55508137,0.331405997,0.0346922986,-1.70026779,0.738792956,-0.69625932,1.41853642,-8.11642361,-0.439026475,0.486835182,-0.390627056,-0.471352905,1.12507391,0.1526099,0.659913003,1.31257617,-1.43745148,0.321163177,2.46185875,0.321163237,-1.96282399,-0.0240627732,-1.72693443,1.88231838,0.787322283,-1.2893002,-7.11117697,-20.3236961,2.53730989,-0.00564486347,-0.277039498,1.22630441,-1.69388914,0.950944483,0.166745305,-1.59311378,-1.30805945,1.03717101,1.23771381,1.03716922,0.314628065,1.46218896,-1.13775074,0.805230141,-1.06807327,0.932342589,0.697607875,7.13032007,1.19611704,0.0299898516,-0.0935129076,-1.18730128,1.82565355,-1.20948029,-1.03119504,-1.46895361,-2.12441444,-1.78794122,-1.64844561,1.02492654,-0.692863405,1.23512101,0.000111948357,8.87888746e-07,0.999872446,1.38651612e-05,8.59509953e-07,0.000276385166,0.000267867377,0.998603761,0.000636658398,0.000215387176,2,0.91015625
H,93,2499,-1.27743649,-1.5972352,-0.71074754,-1.03017139,-1.2084105,-0.463114172,-1.20841038,-0.841836274,0.347639501,-0.0861149132,-1.1521529,0.92436552,-0.225289613,2.25369787,-8.3278017,-0.480604351,0.591768384,-0.803029776,-0.48928538,2.19316912,0.207931042,0.789867043,1.18323994,-1.43745148,0.326418728,2.40018034,0.326418996,-1.85142577,-0.0597998351,-1.72472608,1.73396599,0.260443926,-0.144600108,-2.37590599,-21.1771641,2.45350742,-0.309461534,-0.359192163,0.711779714,-0.936203241,0.850315213,0.14723587,-1.73924601,-1.46779549,0.97241056,1.0829159,0.972409308,0.502557814,1.18401396,-0.814691722,0.17594181,-0.876203299,0.0875029564,-2.48865366,-4.41719627,1.04779828,0.400725275,-0.0385113657,-0.843003452,0.524395704,-1.37314224,-1.07695925,-1.58064854,-2.06242323,-1.76103652,-1.60036182,0.525117934,-0.612926006,0.556964576,0.00013697696,8.26473934e-06,0.999682307,0.000170233398,2.31321405e-06,0.000277504907,0.000279347383,0.998542428,0.000679592427,0.000221202514,2,0.875
H,94,2524,-1.40237927,-1.55415618,-0.871970832,-0.422490805,-1.31149817,-0.596635401,-1.31149793,0.0497201607,-0.35494253,0.267144263,-1.31674814,0.770177543,-0.0539496914,2.46248817,-8.3278017,-0.6133371,0.464272738,-0.630143225,-0.0925834402,1.62219298,0.191405728,1.08127177,1.31257617,-1.51238501,0.273136288,2.08973622,0.273136079,-1.40583277,-0.447146386,-1.23642218,0.868301451,0.385983318,0.193721831,-0.671208382,-3.25435209,2.0900352,-0.568029761,-0.0384833515,0.83356756,0.243423387,1.00571108,0.413068533,-1.15471733,-1.38792753,1.10832083,1.03725266,1.10831916,0.502557814,1.18007421,-0.947946548,-0.119578898,-0.316641659,0.126257315,-1.98555982,7.86117554,1.00732851,0.163936988,0.162620619,-0.988660574,0.827526271,-1.09977317,-1.20052004,-1.42568743,-2.05506539,-1.98906827,-1.59031272,0.2279872,-0.710317671,0.168072611,0.000101159043,4.4049857e-06,0.99967742,0.000215048669,1.9579245e-06,0.000327531539,0.000341002858,0.998151124,0.000902637083,0.000277688901,2,0.9921875
H,95,2549,-1.29183078,-1.5327729,-0.549524248,-1.13145149,-1.1858325,-0.569482982,-1.1858325,-0.306902409,-0.0654194877,0.192888707,-1.67329669,0.962110341,-0.401973665,1.83611715,-8.3278017,-0.586236417,0.574115038,-0.520164311,-0.413529873,0.829072654,0.036234837,1.27924693,1.70058465,-0.987850428,0.0380621515,1.80555046,0.0380617902,-1.07163799,-0.530766606,-1.29796898,0.779995143,0.277950436,0.803895235,0.275845826,-0.480583727,1.75739992,-0.784511387,0.106372267,0.771130741,0.48534748,1.24588561,0.640084863,-1.44698167,-1.62753165,1.35265434,1.13113832,1.35265267,-0.249161214,1.34998298,-1.02518749,-0.132354856,-0.110123158,0.0798165575,-2.32095575,-3.54016972,1.0971669,-0.0807663947,0.255014926,-0.630033255,0.613939166,-1.05024958,-1.03495276,-1.38003123,-1.54622328,-1.99504745,-1.29026115,-0.0231350604,-0.904348373,-0.178084388,0.000318530219,1.77080328e-05,0.999189556,0.000465153746,9.09034679e-06,0.000391709793,0.000395858719,0.997790813,0.00109132868,0.000330330105,2,0.93359375
H,96,2574,-1.05317104,-1.55754495,-1.35564077,-1.13145149,-0.959135532,-0.453691363,-0.959135592,-0.663524985,0.406252891,0.0884026885,-1.18647921,0.566696763,0.79360199,4.75918198,-8.3278017,-0.471322149,0.625050604,-0.927877605,-0.854149461,3.47829008,-0.194262341,1.32117236,1.44191229,-0.613182843,-0.263927966,1.52617621,-0.263928384,-0.403248399,-0.694218278,-1.00569797,-0.42033121,0.837961614,1.08134842,1.41231084,-0.267216921,1.47837639,-1.11209059,0.383110315,0.907686055,1.64938974,1.49809611,0.561182916,-1.59311378,-1.70739973,1.64530492,1.28656507,1.64530361,-0.437090963,1.5223273,-0.887236118,-0.244697407,-0.124237262,-0.428338677,-2.6563518,7.71500444,1.24525964,0.705322504,0.0585264489,-1.41844761,0.476207227,-0.736529768,-0.725346565,-1.1274786,-2.42529655,-1.87385654,-1.93694878,-1.17559898,-1.12928498,-1.81609869,0.000864933128,0.000103887185,0.993424177,0.00558236754,2.46022464e-05,0.00140753738,0.00143880502,0.988848925,0.00678215688,0.00152263383,2,0.9765625
H,97,2599,-0.879974663,-1.3796308,-0.871970832,-1.33401167,-0.830848157,-0.425084591,-0.83084774,-0.841836274,0.63490063,-0.194316387,-0.42371881,0.262517005,-1.72686911,-1.50452864,-8.11642361,-0.441492856,1.246961,-0.965458333,-0.768661022,-0.910327435,-0.28441903,2.11568403,2.34726548,0.136152297,-0.41209054,1.19139266,-0.412090927,-0.29185015,-0.88196522,-1.55421567,0.465357333,0.801565886,-0.266986758,-4.0806036,0.159516692,1.15032613,-0.926716387,0.510826468,1.99332809,-0.275920719,1.50761449,1.09400094,-1.00858521,-1.30805945,1.59841406,1.10346556,1.59841251,-0.437090963,1.34486997,-0.975143433,-0.494538993,0.493578643,1.07035089,0.194513932,7.71500444,1.06513941,0.443756342,-0.60392195,-0.962305009,1.6295265,-0.862530529,-0.537582457,-1.1780858,-2.30322123,-1.70805371,-1.88206267,-0.429804325,-1.16954398,-0.750564337,0.00139449642,1.90452593e-05,0.998274446,0.000273435231,3.86062675e-05,0.00124373171,0.00069481344,0.995366454,0.00201374455,0.000681345293,2,0.78125
H,98,2624,-0.952954531,-1.26329625,-0.549524248,-0.523770869,-0.91381228,-0.441256821,-0.913812339,-0.306902409,-0.250621885,0.407539636,-0.771274328,0.103867851,0.106595114,3.50643992,-8.11642361,-0.45709306,0.728564739,-0.769632399,-0.903986335,2.74702764,-0.096502617,1.66852176,2.08859324,-0.688116372,-0.253581375,1.41173744,-0.253581852,-0.960239708,-0.616221607,-1.17157531,-0.867786229,1.61616027,-0.744767189,-6.73235559,-17.9766617,1.3998332,-1.05932415,1.26035213,0.888428211,-1.06821394,1.20034087,0.917539239,-0.424056619,-1.1483233,1.2609812,0.932126164,1.26097989,0.126698315,1.09202087,-0.81479001,-1.05173934,0.369926721,0.971541345,-0.14088203,7.56883335,0.894411743,0.0514536165,-0.309243292,-0.744303226,1.73934364,-1.45788717,-0.666847646,-1.60946715,-2.30630732,-1.61840785,-1.83907855,-0.159651861,-0.929533482,-0.360325515,5.16310756e-05,6.90000547e-07,0.999899507,4.54891488e-05,2.58573004e-06,0.00034614891,0.000306515663,0.998361766,0.000741297379,0.000244174327,2,0.96875
H,99,2649,-0.966900468,-1.27107263,0.0953690112,-0.928891242,-0.960966051,-0.419648051,-0.960965991,-0.663524985,0.0265423674,0.118756242,-0.865479767,0.150185227,1.55850542,6.01192427,12.3872232,-0.433283657,0.292078614,-0.770009518,-0.525908172,4.36489582,0.0264624208,1.26196432,1.95925701,-0.837983429,-0.10960152,1.62902367,-0.109601773,-0.960239708,-0.148710415,-1.36429405,-0.279964209,1.60123658,-2.3271656,-9.00528526,-20.1103306,1.62755597,-0.0710956976,0.584898591,0.607040644,-2.10788393,0.94775039,0.866230905,0.0143398419,-0.988587201,0.958319783,0.813385069,0.958318174,-0.249161214,0.88548696,-0.79690057,-0.786862493,0.637067974,0.960205495,0.194513932,5.23009586,0.776991427,0.199633375,-0.68457514,-0.468278617,1.87393928,-1.17009008,-0.72072053,-1.39478517,-1.88985181,-1.49350643,-1.52617002,0.457392424,-0.73831296,0.465580642,1.05285235e-05,2.65219427e-07,0.999965191,2.22518447e-05,1.66190478e-06,0.000325056055,0.000300330546,0.998417497,0.000715317437,0.00024188227,2,0.96484375
H,100,2674,-0.920511901,-1.30910552,-0.0658542961,-1.13145149,-0.889348626,-0.365660191,-0.889348388,-0.841836274,0.392036706,-0.0561040342,-0.387368113,-0.0154436715,0.397600979,3.71523023,-8.11642361,-0.380339622,0.656303644,-0.820777118,-0.988195062,2.51903152,-0.0095123481,1.81520128,2.47660184,-0.388382316,-0.163511336,1.70469284,-0.163511246,-0.626044929,-0.649160743,-0.976693749,-0.637719035,1.93729126,-1.31508005,-7.11117697,-0.480583727,1.69653416,-0.264891297,0.330133826,0.638187587,-1.09495091,0.978189826,0.964194059,-0.131792307,-1.06845522,0.964742899,0.895150661,0.964741468,-0.812950492,0.728376031,-0.631376266,-0.961195529,0.278519452,0.655846238,-1.14706993,-2.80931425,0.872203648,0.271569848,-0.652849793,0.222644106,0.886716485,-1.09265983,-0.667056978,-1.33098352,-2.36965013,-1.46520519,-1.86659229,0.510012984,-0.769701302,0.535841703,2.51516067e-05,1.03841887e-06,0.999913931,5.38429849e-05,5.9944955e-06,0.000345229899,0.000316709076,0.998314023,0.00076617836,0.000257841661,2,0.80078125
H,101,2699,-0.869194508,-1.14604306,0.256592333,-0.928891242,-0.854227126,-0.34807542,-0.854227066,-0.12859112,-0.0746002495,0.298361152,-0.767265379,0.0810924247,0.0188343823,2.67127848,-8.11642361,-0.363676727,0.750111878,-0.877017498,-0.821280301,2.38448453,0.0344913714,2.19711971,2.60593796,-0.388382316,-0.0615163743,1.69652247,-0.0615167096,-0.403248399,-0.842702031,-0.976502895,-0.826227009,1.95761824,-0.387622386,-3.89119267,-0.693950534,1.67603564,-0.701212227,0.463759631,0.940894246,-0.687741935,0.822219491,0.963949919,-0.131792307,-0.429510802,0.830323279,0.748188436,0.83032161,-0.437090963,0.417983592,-0.45376271,-1.01831675,0.582060635,0.518609226,-0.643975973,-2.66314316,0.711779535,-0.069168739,-0.26778236,-0.241462737,1.10009205,-1.27063251,-0.636396766,-1.45089364,-2.67318177,-1.3274194,-2.06816387,0.557728887,-0.660944104,0.584190905,7.13095069e-05,5.77514811e-06,0.999700785,0.00020276873,1.94720087e-05,0.000353246578,0.000339797814,0.998210549,0.00082404213,0.000272336969,2,0.73046875
H,102,2724,-0.862210989,-0.948122323,0.901485562,-0.321210712,-0.857013404,-0.433591634,-0.857012928,0.406342715,-0.767960787,0.810095727,-1.02117324,0.0182583537,-1.67105746,-1.29573834,-8.3278017,-0.450209409,1.16208422,-0.946319878,-0.572881639,-1.25855398,0.167042226,2.73939061,3.25261879,-0.0886482522,0.047691308,1.46407938,0.0476910993,-0.403248399,-1.0038619,-1.1697073,-0.268552631,1.19362986,-0.473277599,-4.0806036,-1.12068415,1.44798684,-0.762903452,0.486224592,1.51717162,-0.515655875,0.497094482,1.0279566,0.452736288,-0.189906612,0.412661761,0.357478499,0.412660271,-0.0612314492,-0.290011585,-0.273311704,-1.5864619,0.868078232,0.684155822,-0.811673939,-2.66314316,0.325261414,-0.271549344,-0.412968665,0.561068475,1.10878336,-1.90566099,-0.674057722,-1.93000305,-2.09220529,-1.12758684,-1.643888,1.27430391,-0.41005528,1.43676376,6.78191136e-05,8.70169151e-06,0.999731719,0.000151052751,4.08143387e-05,0.000404279184,0.000423504418,0.997860968,0.000981101184,0.000330104522,2,0.421875
H,103,2749,-1.06575322,-0.9606511,1.22393215,0.083909668,-1.08794129,-0.524307966,-1.08794117,0.762965322,-0.946909785,0.8567276,-1.30027199,0.137211815,0.105530329,3.29764962,-8.11642361,-0.540680349,0.740040481,-0.888859749,-0.815933168,1.88295591,0.30523935,2.40429878,2.86461043,-0.388382316,0.160052672,1.66281426,0.16005215,-0.180451885,-0.864857435,-0.888392627,-0.574852288,1.04000902,0.00393340085,-3.51237106,-1.12068415,1.63787603,-0.720195651,0.40381518,1.06577253,-0.182502851,0.386526316,0.728360593,-0.277924448,-0.0301704947,0.209407225,0.323036432,0.209405616,0.314628065,-0.187032104,-0.394615442,-0.850925148,0.631974161,0.410849929,-0.308580011,6.69180679,0.297022045,-0.0577775948,-0.473566741,-0.00935032498,0.831407785,-1.76519465,-0.903000116,-1.83031416,-2.18310785,-1.25932229,-1.66592693,0.767939091,-0.287599593,0.808571398,7.99632562e-06,6.61755166e-06,0.999660492,0.000308034243,1.67639664e-05,0.000317575556,0.000334045966,0.998267174,0.000819333014,0.000261773675,2,0.96484375
H,104,2774,-0.992221534,-0.895086765,1.22393215,0.083909668,-1.00446248,-0.48821491,-1.00446224,1.47621047,-0.512905419,0.464130282,-1.29346931,0.205492571,0.607966781,3.50643992,12.1758451,-0.504414678,0.385027677,-0.588310599,-0.68231082,3.09427071,0.187533721,2.59672022,2.99394655,-0.238515273,0.0613092482,1.56066537,0.0613087118,0.376539409,-0.920993865,-1.04848802,-0.648669839,1.11341882,-0.118503481,-3.13354945,-1.12068415,1.5247066,-1.02423155,0.801053882,0.776422083,0.387348861,0.598664284,1.14418721,0.160471991,0.0496975631,0.376158774,0.453745753,0.376157463,-0.0612314492,-0.242001653,-0.429061264,-1.06193089,0.341209799,0.0624551848,-1.65016389,-2.66314316,0.423172414,-0.172448769,-0.186790153,0.516563237,0.580151916,-1.86876595,-0.796878338,-1.90517867,-0.999257147,-1.31572425,-0.943419576,-0.456146866,-0.466728091,-0.707054436,3.5870321e-06,7.83828727e-06,0.999836564,0.000143727593,8.28051634e-06,0.000328738446,0.000355563912,0.998213768,0.00083813793,0.000263819704,2,0.98828125
H,105,2799,-1.04509175,-0.874150932,1.86882544,0.286469847,-1.09365106,-0.500833511,-1.0936507,1.47621047,-1.06151688,0.712726295,-1.20637953,0.259839177,-0.712217569,0.792165279,-8.3278017,-0.516717494,0.418456912,-0.569348812,0.343986332,-1.08401239,0.0965494215,2.68834615,2.99394655,-0.388382316,0.0095535107,1.53371215,0.00955348648,0.376539409,-1.07483244,-1.06119502,-1.217641,1.71005392,0.648129284,-0.481797546,-2.61425185,1.54253531,-1.58076692,0.829872131,1.4750315,1.20342159,0.871895969,1.49566293,0.306604147,0.0496975631,0.655018806,0.673636496,0.655017436,-0.0612314492,-0.114420936,-0.44420287,-0.828591526,0.544583738,-0.404556513,-1.8178618,7.13032007,0.637051702,0.111802623,-0.383246154,0.623928308,0.281380534,-2.26574159,-0.815645754,-2.19312143,-1.36018133,-1.52862978,-1.16832972,-0.334914714,-0.66722858,-0.577948213,6.08193805e-05,5.03278388e-05,0.998933852,0.000864814734,9.02566462e-05,0.000415157672,0.000449053477,0.997621238,0.00115587923,0.000358731661,2,0.97265625
H,106,2824,-1.04400384,-1.05265129,1.54637873,0.083909668,-1.1611141,-0.450477004,-1.16111398,1.1195879,-0.586280704,0.529784024,-0.968641281,-0.0505463704,-1.57043839,-0.669367194,-8.3278017,-0.464836359,0.861015201,-0.536907911,-0.800391376,-0.33800301,0.164544016,1.99532723,2.47660184,-0.912916899,0.148561209,1.79979575,0.14856112,0.0423446298,-0.961394429,-0.694863319,-1.84973896,1.74981236,-0.272880226,-2.7547276,-2.40088487,1.79465783,-0.860059261,0.538020134,0.47387439,0.458016485,0.711732924,0.936813295,-0.131792307,-0.349642724,0.574564517,0.668238461,0.574563026,-0.0612314492,0.19344312,-0.49447608,-0.425726771,0.510130703,0.461831897,-0.643975973,-3.97868299,0.636730492,0.0655023828,-0.395926505,-0.231391042,1.05652118,-1.92054641,-0.837009907,-1.944489,-0.265304208,-1.43483412,-0.474223614,0.2492906,-0.545286655,0.184727296,2.35668849e-05,1.85737299e-05,0.999794304,0.000138506584,2.50367229e-05,0.000317407568,0.000339240971,0.998293102,0.000789123413,0.000261091336,2,0.93359375
H,107,2849,-1.0939244,-0.933693409,1.86882544,0.083909668,-1.22913909,-0.451316804,-1.22913909,1.29789913,-0.347532868,-0.0113622695,-0.23748292,-0.240302518,-0.239825502,2.04490757,-8.3278017,-0.463061839,0.135112017,-0.236027822,0.00345188053,0.564763308,0.122813381,1.69946134,2.34726548,-1.13771749,0.0778659433,1.87990391,0.0778654218,-0.29185015,-0.554111779,-1.05400515,-1.13948548,1.78275299,-0.868897498,-5.59589052,-18.1900291,1.89158773,-0.698587418,0.678026199,0.85369432,-0.653366446,0.862684071,0.91504389,-0.862453043,-0.589246929,0.709773481,0.843529344,0.709771812,-0.812950492,0.440128982,-0.756121755,0.139405936,-0.32305187,-0.57656616,-2.48865366,-2.80931425,0.810705066,0.300181597,0.00531147746,-0.0395502895,-0.0310222786,-1.65093625,-0.870040596,-1.75429392,0.413934559,-1.5731703,-0.0263629686,0.841857076,-0.651927888,0.969114959,9.10186645e-06,5.08426592e-06,0.999923468,4.21761251e-05,2.00953964e-05,0.000295326259,0.000301980181,0.99845922,0.000689876615,0.000253664504,2,0.9765625
H,108,2874,-1.22278118,-1.02184856,2.19127202,-0.219930619,-1.34323657,-0.482484788,-1.34323657,1.1195879,0.176706165,-0.695275009,0.132790133,0.0596491471,0.682983875,3.71523023,-8.3278017,-0.494190931,-0.124365591,-0.521333158,0.370792598,2.58567667,0.129228607,1.34244967,1.95925701,-1.88705266,0.13392505,2.11070371,0.133924529,-0.626044929,0.14211148,-1.70566869,-0.688105702,1.99761057,0.227311566,-1.80767345,-18.1900291,2.08662295,-1.05667448,0.757234395,0.544989705,0.380127162,0.977654159,0.928535879,-0.716320932,-0.988587201,0.967198551,1.04892302,0.967196882,-0.625020742,0.755879343,-1.03862953,0.283724993,-0.292305499,0.876555324,0.0268159546,-2.95548534,1.01082897,-0.100377701,-0.419550687,-0.126267746,1.41917384,-1.82059205,-0.996625245,-1.87983119,0.291137338,-1.77362287,-0.132945776,1.28215539,-0.717159927,1.58395112,2.59855206e-05,1.88576014e-05,0.999813974,9.51332477e-05,4.61193558e-05,0.000281092274,0.000286323193,0.998514116,0.000666115142,0.000252398051,2,0.76171875
H,109,2899,-1.12688816,-1.2108947,0.901485562,-0.523770869,-1.19722378,-0.359076947,-1.19722366,0.228031442,0.60407573,-0.823256314,0.639853656,-0.126031831,0.796940267,5.59434366,-8.3278017,-0.373194635,0.155750528,-0.635726273,-0.44357273,4.45744944,0.129646257,1.05799222,1.57124853,-1.88705266,0.281387001,2.41274381,0.281386256,-1.51723099,0.0764077455,-1.68644881,-0.636694729,1.84267282,0.507008374,-0.481797546,-2.18751812,2.38586974,-1.08508623,0.59399271,0.914825737,1.0138557,0.880986691,0.757041812,-1.00858521,-0.908719122,0.952978432,1.12991488,0.952976644,-0.437090963,0.861514449,-0.915687084,0.477039576,-0.255724251,1.07446468,0.0268159546,8.00734711,1.11479735,0.377416611,-0.785041034,-0.438633472,1.33036113,-1.64072657,-0.903597653,-1.7496506,-0.473408669,-1.61768937,-0.603872657,1.45872843,-0.660241187,1.7882911,3.72765062e-05,1.93486849e-05,0.999557674,0.000352558389,3.30859657e-05,0.000306296075,0.000311307987,0.998341203,0.000757706934,0.000283457775,2,0.97265625
H,110,2924,-0.992155671,-1.21088183,0.74026227,-0.827611148,-1.04527688,-0.304134369,-1.04527676,-0.306902409,0.817902982,-0.848513305,1.27259517,-0.558573544,0.757742345,4.55039167,12.3872232,-0.320973516,0.308604181,-0.666002035,-0.440041721,2.25556946,0.0388260446,1.04665685,1.57124853,-1.28758454,0.0626360402,2.15458536,0.0626355857,-0.960239708,-0.196589455,-1.43882143,-0.503559589,1.64949548,-1.09887588,-6.35353374,-20.1103306,2.16694283,-0.506334126,0.369478285,1.08414495,-0.79773885,0.946882904,1.23707592,-0.862453043,-0.828851104,1.07458568,1.10667706,1.07458401,-0.249161214,0.25060299,-0.40973103,-1.20125151,1.22860241,0.668949544,-0.643975973,-3.54016972,1.06668317,-0.117812261,-0.621264219,0.544602036,1.34325957,-1.3740499,-0.747781456,-1.54714143,-1.00420797,-1.51800227,-0.923404455,2.11981511,-0.733135998,2.66568089,1.18293347e-05,2.58495561e-06,0.999919534,4.79104056e-05,1.8087725e-05,0.000293708261,0.000277577201,0.998488188,0.000633632881,0.000306815666,2,0.98046875
H,111,2949,-0.838989019,-1.24952543,-0.227077603,-1.13145149,-0.82937026,-0.271718323,-0.829370022,-0.663524985,1.06266081,-0.771471977,1.05915332,-0.306718737,-2.14785266,-1.08694792,-8.3278017,-0.290181935,1.2353127,-0.917667866,-0.815847933,-1.53246701,-0.0849357843,1.13676167,2.08859324,-0.987850428,-0.128945082,1.80147791,-0.128945947,-1.07163799,-0.333593041,-1.18305182,-0.638512254,1.823048,0.505488515,-1.42885172,-18.6167622,1.7690351,-1.22557735,0.675045848,1.12670374,0.286847353,1.0551331,1.33507025,-1.00858521,-0.908719122,1.16081011,1.0448581,1.16080868,-0.0612314492,0.616425276,-0.923497617,-0.766585767,0.933432937,-0.0298691373,-3.15944576,-5.14805174,1.01004553,-0.0423182473,-0.742282629,2.13327599,-0.339583009,-0.951623261,-0.570003211,-1.21355033,-0.814605951,-1.42980719,-0.759932578,2.10989356,-0.842913687,2.66604304,0.000379034405,7.30992324e-05,0.998690903,0.000475452864,0.000381402235,0.00036736828,0.000314029632,0.998174071,0.000716687355,0.000427937048,2,0.93359375
H,112,2974,-0.778548837,-0.891969204,0.0953690112,-0.625050962,-0.721595228,-0.304923952,-0.72159493,-0.663524985,1.00966811,-0.968183279,0.820056438,0.0429764353,-0.337730348,2.25369787,-8.11642361,-0.323291153,0.630054474,-0.797220886,-0.262808353,0.73145479,-0.185283154,1.37510419,1.82992089,-0.313448787,-0.291780412,1.45927107,-0.291780442,-0.403248399,-0.0519334376,-1.64996946,0.00935856346,1.99862731,-2.05026031,-8.43705273,-21.1771641,1.43874288,-0.42116645,0.624993682,1.76912248,-2.26799726,1.20264423,1.46704185,-0.424056619,-0.589246929,1.2018255,1.00786722,1.20182347,-0.625020742,0.396916419,-0.76033324,-1.06171834,1.08409262,-0.260566354,-2.32095575,8.15351772,0.971738219,0.205795184,-0.781656146,1.00823605,0.613592863,-0.790505648,-0.483927757,-1.08641469,-1.56537414,-1.45335102,-1.30741346,1.71375871,-0.965074539,2.17061257,3.39235376e-05,2.6934681e-06,0.999854445,4.2261061e-05,6.6582681e-05,0.000436237926,0.000359534228,0.997943223,0.000835014274,0.000425963284,2,0.45703125
H,113,2999,-0.789665759,-1.03093529,-0.388300896,-0.422490805,-0.743685007,-0.378292263,-0.743684709,-1.37677014,0.548945189,-0.369440168,-0.0609311201,0.00947020669,1.22783387,6.01192427,-8.11642361,-0.396372974,0.367003292,-0.708544552,-0.677068293,3.30171657,-0.150467142,1.48154008,2.08859324,0.0612187833,-0.254405677,1.26198399,-0.254406154,-0.626044929,-0.403740823,-1.49352252,0.576597929,1.37324584,0.242302209,-3.51237106,-18.6167622,1.2482022,-1.08961487,0.702095985,1.58217621,-0.794607341,1.14163208,1.74262869,-0.131792307,-0.50937885,1.12942445,0.818213761,1.12942302,0.314628065,0.083478868,-0.663177192,-1.43266082,0.389419228,-0.634734154,-3.32714367,-2.22462988,0.780451119,-0.213764131,0.086358577,0.689609408,-0.0464156382,-1.22151554,-0.505294859,-1.41235971,-2.1202302,-1.43079734,-1.72340035,1.18232083,-0.917343199,1.44387496,7.79996408e-05,3.71389178e-05,0.99809128,0.00154577149,0.000247732271,0.000462106545,0.000406439533,0.99774617,0.00100148062,0.000383813778,3,0.6796875
H,114,3024,-0.772864223,-0.912284315,0.0953690112,-0.219930619,-0.744095385,-0.305479348,-0.744095206,-1.19845879,0.626101971,-0.645083964,0.389141202,-0.0869972557,1.54967344,7.26466656,12.1758451,-0.323889136,0.113794088,-0.821931005,-0.375560611,4.87063646,-0.186136827,1.60452926,1.95925701,0.286019325,-0.219050542,1.42488992,-0.219050363,-0.737443209,-0.733526647,-1.25559008,0.00384357013,1.72763503,-0.143711656,-3.13354945,0.799617112,1.43618035,-0.926965058,0.387302905,1.49042857,-1.98399329,1.19826269,1.93688166,0.452736288,-0.429510802,1.17924535,0.996353388,1.1792438,-0.0612314492,0.13207747,-0.841264427,-1.20750022,0.708122134,0.225773782,-1.31476784,-0.324405611,0.963385105,-0.172439069,-0.834420145,1.55869222,0.736668348,-0.762265384,-0.478798479,-1.06348264,-2.05669618,-1.44573462,-1.68194854,0.505759597,-0.962958574,0.540471554,4.80583585e-05,2.92201221e-05,0.997734547,0.00203851447,0.000149630912,0.000497350586,0.000467489706,0.997354269,0.00125195365,0.000428995554,2,0.8046875
H,115,3049,-0.706568956,-0.709810257,0.579038918,-0.321210712,-0.708091438,-0.350521415,-0.708091319,-0.485213697,0.20341742,-0.26160863,-0.483741909,0.237191126,1.42072809,7.05587626,12.1758451,-0.369077146,0.132006586,-0.76586026,-0.312647283,5.16953468,-0.306954354,1.51277673,1.95925701,0.360952854,-0.351177514,1.05959189,-0.351177722,-0.403248399,-0.931418538,-0.784694314,-0.651125789,2.4027853,-0.328745455,-3.32296014,-18.8301296,1.07290828,-0.737266004,0.138836756,1.4659493,-0.644127309,1.37280643,2.04988408,0.306604147,-0.908719122,1.34343481,0.942196846,1.3434329,0.126698315,0.266661376,-0.882875979,-1.86498904,1.1350733,0.790690184,-0.14088203,5.37626696,0.908609152,-0.272800386,-0.916473031,1.15973759,1.51054001,-0.926059186,-0.381363779,-1.18357527,-1.45275283,-1.47716832,-1.21873283,0.400043607,-1.10622323,0.404553503,0.000290885539,9.56875083e-05,0.993302345,0.00574009819,0.000570918433,0.00130904384,0.00105140195,0.992915988,0.00344665488,0.0012769145,2,0.90234375
H,116,3074,-0.785532117,-0.736161888,1.06270885,0.286469847,-0.788732827,-0.407626241,-0.788732708,0.0497201607,0.0582955368,-0.148387447,-0.712716699,0.379381269,2.95047879,9.14377975,12.1758451,-0.423167229,-0.414137244,-0.398121506,-0.387428164,6.93168068,-0.205684021,1.49577069,1.82992089,0.0612187833,-0.1861929,1.10385954,-0.186193094,-0.848841429,-1.12816679,-0.420285195,-1.24501193,2.4315877,-1.20916104,-6.16412306,-18.8301296,1.1056695,-0.681234956,0.58839488,1.31400263,-3.09058356,1.25242448,2.01475024,0.745000601,-0.908719122,1.18658519,0.828298807,1.18658352,0.314628065,0.0391240567,-0.835506499,-1.27187049,0.357273698,0.374926835,-1.65016389,-0.324405611,0.795446396,-0.375903875,-0.573274553,1.46879065,0.407876939,-0.592633545,-0.482894897,-0.941526771,-1.42492604,-1.48639548,-1.19995224,0.503051043,-1.00066948,0.540851474,1.27801241e-05,8.5762922e-06,0.999474466,0.000444235804,6.00913409e-05,0.000561433844,0.00048401946,0.997257411,0.0012169641,0.000480216608,2,0.9296875
H,117,3099,-0.956837952,-0.697567105,0.74026227,0.792870343,-0.971012712,-0.487433523,-0.971012473,0.228031442,-0.458732456,-0.020895239,-0.919395506,0.424427122,2.11259341,7.26466656,12.5986013,-0.504954636,-0.360121846,-0.359803647,0.00475755194,4.06749535,-0.0248877909,2.57746363,2.47660184,0.211085811,0.0196383391,1.29090238,0.0196382347,-0.29185015,-1.38270247,-0.865315259,0.210518464,1.40597212,-0.858108342,-4.64883614,-19.0434952,1.28843153,-0.917701185,0.661809862,1.27767408,-1.67531514,1.05071616,1.38309562,0.160471991,-0.908719122,0.976763308,0.717976749,0.976761639,-0.249161214,0.805474281,-1.3187443,-0.285208315,0.42171964,0.888382375,0.362211913,-0.324405611,0.6833812,-0.374336034,-0.413305819,0.279540956,0.892561316,-1.10140634,-0.694466889,-1.34642708,-1.46962118,-1.54089272,-1.23787582,0.928333521,-0.81745559,1.10221553,2.69364882e-05,3.47668242e-06,0.999680758,0.000232576174,5.62687273e-05,0.000453576213,0.00042351117,0.997661352,0.00105851947,0.000403005659,2,0.90234375
